# 43 windows of real detrended PPG, captured from the wrist overnight 2026-08-08 --
# the first night the capture path reached the phone (a u8 sample count could not
# express 256, so every earlier window was discarded as malformed).
# truth_bpm is the dominant spectral peak in 30-214 bpm, computed independently of
# the autocorrelation the estimator uses, so it cannot rubber-stamp the estimator's
# own mistakes. It is not an ECG; treat a disagreement as a question, not a verdict.
# Samples are int8, already detrended and scaled by the firmware.
time,truth_bpm,samples
2026-08-08 01:39:48,70,16 29 25 37 34 10 -6 -9 -21 -17 -24 -32 -28 -32 -35 -39 -27 -26 -18 -2 7 31 19 36 52 48 32 17 -7 -7 -14 -6 -18 -21 -29 -29 -28 -16 -24 -12 -7 13 5 30 38 58 67 27 27 24 -24 -24 -12 -23 -23 -23 -22 -14 -18 -13 -1 7 16 8 40 48 73 33 33 22 -10 -38 -29 -25 -17 -48 -32 -12 -32 -7 -23 9 2 14 10 23 47 31 4 4 -8 -8 -15 -43 -23 -30 -14 -34 -25 -1 -17 12 0 20 12 37 49 45 38 46 22 -1 3 -37 -28 -24 -16 -52 -23 -39 -15 -26 -14 -2 -5 31 15 36 56 48 48 29 1 -3 -6 -30 -50 -29 -25 -33 -40 -12 -8 0 -3 9 -3 6 34 30 63 51 23 12 8 -20 -27 -23 -23 -19 -38 -26 -38 -17 -1 -17 4 16 20 33 29 33 41 -2 -22 -10 -45 -37 -37 -56 -52 -32 -48 -43 -31 -35 -26 -18 10 7 7 31 44 44 52 53 33 17 -23 -30 -30 -50 -45 -57 -45 -40 -56 -44 -27 -11 -7 1 2 10 18 63 51 47 76 76 88 41 45 21 5 6 -10 14 -1 15 7 -4 -8 0 33 33 17 33 2 -30 -54 -69 -61 -45 -16 -8 -12 17 -7 -11 1 14 -2 18 27 27
2026-08-08 02:27:09,64,-75 -91 -89 -88 -96 -95 -97 -80 -86 -88 -85 -79 -70 -64 -56 -63 -49 -52 -56 -49 -35 -41 -42 -40 -45 -53 -57 -58 -54 -45 -47 -52 -46 -48 -35 -33 -32 -28 -14 -23 -5 4 -2 15 7 9 22 8 -5 -3 -7 -2 -6 1 3 8 8 8 17 21 14 30 27 23 37 40 38 47 47 45 26 32 35 39 36 38 28 45 37 40 50 50 49 49 46 56 61 61 59 76 74 67 55 53 46 46 47 47 44 32 36 35 29 48 38 38 41 47 44 50 53 51 63 56 60 65 45 47 36 24 23 31 28 8 16 11 13 14 20 10 15 17 20 20 39 33 39 54 44 43 39 38 14 26 15 17 4 4 2 7 5 4 0 11 19 23 12 22 29 31 33 40 32 35 27 14 10 4 -3 11 0 6 4 -1 -5 6 14 19 15 17 18 20 33 27 33 24 12 7 -1 -8 -18 -10 -19 -21 -18 -12 -24 -19 -21 -6 -14 -7 -1 -1 2 2 7 11 -5 -4 -26 -25 -41 -32 -52 -44 -39 -51 -48 -46 -44 -31 -39 -24 -30 -25 -25 -15 -18 -14 -3 -15 -36 -44 -52 -45 -61 -46 -48 -44 -53 -47 -42 -50 -45 -35 -45 -28 -34 -29 -23 -13 -22 -26 -49 -47
2026-08-08 02:39:47,60,-27 -31 -32 -12 -16 -9 31 2 26 22 21 -7 -3 -36 -48 -61 -65 -93 -70 -78 -50 -67 -75 -72 -68 -64 -61 -41 -42 -14 -2 -15 5 5 16 16 -9 -9 -53 -50 -50 -66 -75 -59 -48 -72 -68 -61 -69 -54 -62 -38 -31 -39 -15 -4 20 11 19 39 50 42 10 -7 -31 -28 -12 -20 -25 -29 -22 -14 -30 -23 -15 1 12 8 11 11 31 22 38 50 65 69 44 40 20 19 27 18 34 18 25 25 9 16 36 23 31 39 62 38 86 81 89 104 100 92 111 75 46 22 26 -3 1 25 -4 -4 -5 -13 3 6 2 34 9 21 36 40 56 55 75 74 86 98 77 65 49 24 12 15 -5 -5 -10 10 -10 -7 -7 0 4 -4 19 27 31 18 34 53 57 73 80 80 83 43 51 10 14 22 13 21 28 12 0 15 15 6 14 6 1 37 45 44 60 43 71 67 50 38 22 -15 -31 -20 -24 -28 -25 -29 -29 -30 -22 -27 -7 -3 -4 -12 -5 19 27 18 18 46 49 41 36 0 -16 -25 -29 -29 -58 -70 -59 -59 -51 -60 -48 -69 -41 -69 -50 -30 -18 -27 -31 4 16 16 3 23 18 2 -30 -47 -59 -55 -80 -76 -73 -65 -85 -78 -82 -70 -75 -75 -52 -68
2026-08-08 02:47:44,56,-42 -44 -40 -36 -50 -32 -28 -28 -22 -28 -17 -9 -1 -9 5 -21 -17 -19 -33 -35 -30 -32 -30 -34 -28 -26 -30 -32 -28 -13 -19 -19 -21 -19 -13 -5 -5 -1 -9 2 2 8 14 -4 -6 -14 -20 -18 -14 -15 -13 -17 -13 -7 -9 -7 -17 -1 -1 6 12 4 6 22 12 16 30 22 25 33 29 17 13 13 11 13 11 -1 6 2 -4 4 18 0 12 10 18 16 19 17 13 23 25 31 29 31 19 34 26 20 16 10 14 14 12 14 4 11 13 23 17 21 25 31 31 41 35 46 48 46 52 52 58 66 44 52 43 41 27 31 29 33 23 19 23 13 22 20 18 14 34 32 24 26 32 28 39 39 39 53 45 37 27 17 17 1 4 4 -2 -2 -6 -6 -12 -12 -8 -6 -11 -17 -9 -15 -11 -3 -13 -9 -17 0 -6 -6 -20 -30 -34 -38 -40 -42 -52 -37 -33 -45 -39 -45 -41 -45 -43 -31 -33 -30 -32 -34 -28 -18 -18 -20 -10 -16 -17 -13 -17 -37 -33 -25 -37 -39 -43 -45 -30 -32 -34 -32 -36 -20 -24 -20 -18 -24 1 -7 -1 3 -1 3 7 19 7 26 8 4 2 -2 -8 -2 -6 -2 4 1 -1 3 5 13 5 11 11 11 23 24 20 34
2026-08-08 02:59:49,58,-39 -63 -70 -49 -61 -72 -68 -79 -58 -66 -61 -53 -48 -24 -55 -22 -22 -37 -9 -8 -15 13 26 30 35 23 56 37 17 -18 -22 -37 -16 -24 -19 -15 -22 -38 -37 -32 -28 -43 -23 -10 -22 -9 8 12 21 13 26 11 35 56 40 17 -7 -10 -29 -17 -16 -12 -27 -34 -14 -13 -33 -24 -24 -31 -26 -14 -9 -21 -4 12 9 18 18 27 7 -24 -15 -27 -38 -46 -33 -41 -44 -35 -47 -26 -50 -21 -33 -44 -11 -7 18 18 15 28 24 41 37 54 38 43 16 -16 -27 -31 -22 -5 7 4 -8 13 -7 18 11 31 40 28 37 54 66 87 63 60 100 89 102 86 39 51 40 21 37 42 38 31 39 44 25 45 50 46 55 51 48 53 65 78 62 63 96 100 97 69 58 34 23 28 12 29 25 6 22 7 0 4 13 1 30 15 51 36 56 53 49 82 83 75 60 56 29 -2 10 -13 -1 12 -4 -15 -14 -2 7 7 12 9 25 22 30 43 39 40 41 53 62 34 55 23 4 -11 -19 -14 -42 -49 -28 -52 -55 -23 -34 -30 -41 -44 -48 -11 -23 -30 -6 -5 -24 -20 -15 -7 -14 -41 -57 -60 -84 -103 -107 -94 -85 -81 -100 -100 -107 -102 -98 -101 -89 -76 -68 -99
2026-08-08 03:07:34,55,-27 -24 -17 -26 -7 -11 -24 -1 -6 -2 9 8 -1 -2 10 -27 -44 -29 -50 -46 -39 -44 -49 -33 -46 -55 -40 -29 -21 -26 -23 -44 -36 -17 -14 -3 -12 -4 7 10 29 -24 -60 -49 -42 -55 -51 -60 -33 -50 -47 -47 -44 -37 -38 -50 -27 -16 -41 -38 -26 -27 -16 -5 -17 -2 -7 8 -17 -25 -38 -43 -24 -40 -29 -42 -15 -24 -16 -49 -30 -11 -8 0 -9 -2 5 5 8 7 26 13 37 40 47 34 22 9 -4 27 14 34 41 32 31 18 50 37 24 43 43 42 49 52 51 47 66 61 68 68 67 66 41 48 40 43 38 61 53 44 43 58 45 37 64 51 58 66 49 56 55 70 62 53 92 75 102 70 65 68 51 35 18 33 28 27 31 18 17 32 20 35 26 21 24 32 31 38 17 21 36 39 34 45 53 72 47 10 29 1 12 7 2 2 -3 -4 15 10 -6 5 -8 11 11 10 1 4 -5 -1 26 17 28 16 19 18 33 12 -4 -21 -30 -19 -24 -36 -37 -38 -27 -35 -44 -17 -50 -31 -27 -16 -17 -18 -14 -31 4 -5 -10 -10 -23 -24 -21 -14 -58 -63 -72 -61 -65 -70 -75 -80 -73 -69 -42 -59 -72 -52 -73 -70 -71 -56 -40 -57 -54 -59
2026-08-08 03:19:36,38,58 64 64 53 54 39 35 29 27 26 22 18 17 20 19 18 17 22 23 24 25 33 32 32 35 41 41 51 50 40 33 30 16 18 10 9 14 13 11 7 9 7 10 12 16 18 21 19 26 27 26 35 34 25 13 6 -2 -6 -9 -5 -13 -13 -12 -13 -11 -11 -17 -7 -5 -5 1 1 1 4 7 12 17 7 3 -14 -15 -28 -31 -32 -32 -27 -28 -34 -31 -32 -29 -26 -28 -24 -30 -23 -20 -21 -14 -11 -14 -22 -33 -41 -42 -49 -46 -49 -47 -41 -46 -51 -54 -47 -41 -39 -33 -30 -38 -45 -53 -52 -35 -30 -42 -59 -73 -70 -76 -78 -78 -73 -70 -63 -52 -50 -48 -38 -36 -33 -27 -7 46 59 44 45 36 22 10 1 4 -5 -2 -4 -7 -10 -25 -44 -55 -42 -39 -43 -43 -48 -42 -34 -28 -34 -22 -31 -34 -32 -23 -23 -20 -15 -12 -12 -3 2 8 17 21 28 21 13 7 3 -5 1 0 6 6 7 10 16 13 23 20 28 37 35 23 15 8 4 3 2 8 9 6 4 10 9 11 20 18 23 32 24 15 11 -7 -6 -11 -3 3 5 10 10 10 12 13 21 26 28 38 34 34 19 19 11 17 17 20 21 27 28 33 43 47 50 53 61 70 76
2026-08-08 03:29:48,56,-8 -18 -9 -13 -10 -10 -13 -17 -8 -4 -1 3 0 4 9 21 28 32 33 41 46 62 55 33 18 2 -7 1 -2 -2 -5 -5 -4 -10 -5 -7 -4 4 5 11 19 14 26 33 41 36 42 53 35 12 -8 -9 -21 -20 -24 -33 -27 -44 -34 -29 -33 -34 -34 -27 -17 -6 -8 -3 9 2 16 17 35 36 32 39 19 -6 -22 -27 -37 -35 -36 -46 -43 -45 -44 -50 -49 -47 -40 -34 -25 -27 -16 -10 -1 1 4 16 17 31 32 24 -3 -23 -20 -34 -47 -37 -34 -24 -33 -35 -42 -40 -37 -31 -26 -20 -19 -1 -5 -4 12 21 25 36 36 53 23 18 0 -13 -15 -14 -12 -9 -19 -24 -18 -9 -11 -10 -14 1 9 14 6 19 25 26 30 41 49 48 44 15 -1 -4 -12 -9 -5 -13 -8 -8 -11 -9 -4 4 9 3 8 16 25 29 34 38 49 47 62 68 67 47 28 4 5 -9 -12 -18 -9 -25 -28 -20 -23 -19 -16 -4 -1 -3 2 8 17 11 21 26 36 37 35 52 44 33 5 -4 -10 -21 -21 -34 -28 -35 -35 -36 -32 -35 -31 -20 -14 -11 -13 4 2 -1 13 12 12 35 43 36 24 9 -3 -14 -30 -17 -23 -26 -20 -22 -25 -23 -22 -18 -3 3 8 -2
2026-08-08 03:38:11,54,25 19 13 4 0 6 6 5 -1 -4 -2 6 4 -1 6 7 12 13 20 22 19 27 33 33 37 28 25 13 8 2 -4 -5 -2 -9 -7 -7 -9 -8 -4 1 2 -2 3 2 5 11 15 12 22 23 29 32 25 16 9 1 -6 -8 -11 -7 -5 -12 -6 -11 -13 -13 -11 -11 -7 -7 -1 3 0 5 9 12 18 19 17 8 -1 -10 -23 -26 -29 -25 -24 -26 -29 -31 -36 -28 -25 -29 -27 -25 -19 -17 -13 -11 -13 -3 0 -1 -1 8 11 6 1 -13 -14 -23 -26 -27 -25 -26 -22 -26 -25 -30 -28 -26 -23 -25 -21 -16 -15 -9 -3 1 5 4 7 10 13 15 6 -3 -8 -17 -17 -17 -16 -15 -16 -18 -15 -19 -14 -11 -13 -8 -2 -3 -1 8 7 11 14 18 24 28 27 18 13 6 3 5 3 3 -2 1 1 0 -2 0 4 4 7 7 8 9 14 17 19 23 26 28 28 18 10 5 -2 -6 -7 -11 -11 -12 -14 -11 -13 -17 -18 -13 -17 -7 -9 -6 -4 -2 3 10 13 15 19 17 10 -2 -7 -10 -14 -21 -25 -27 -25 -29 -25 -24 -25 -27 -23 -21 -17 -18 -11 -10 -7 -5 -8 -2 -2 3 5 2 -3 9 65 63 55 51 48 39 37 33 29 25
2026-08-08 03:47:47,54,-31 -25 -44 -40 -41 -49 -44 -51 -59 -48 -50 -51 -55 -46 -54 -41 -45 -26 -30 -23 -27 -12 -10 3 7 16 22 19 17 14 -2 -1 -9 -24 -18 -31 -27 -28 -29 -23 -20 -32 -17 -29 -18 -12 -11 -7 4 -2 3 13 18 22 35 47 50 34 31 21 16 -2 -11 3 6 2 11 16 10 3 5 12 16 19 21 26 32 33 35 38 46 57 51 64 42 33 21 12 4 3 3 0 -10 -9 -9 -16 -16 -11 -10 -4 -7 -1 4 12 19 5 22 24 25 27 28 40 37 29 12 4 -7 -17 -20 -18 -9 -25 -18 -18 -9 -13 -18 -18 -11 -4 4 7 9 12 28 21 27 42 52 47 55 40 36 33 31 12 4 9 11 10 -6 3 7 -8 4 5 13 16 14 25 25 34 35 37 50 50 61 49 42 30 15 5 8 0 -3 -11 4 -4 3 5 2 2 3 3 10 14 5 19 16 24 29 38 38 45 29 18 10 5 -15 -20 -22 -9 -19 -18 -36 -31 -21 -30 -32 -25 -29 -20 -10 -15 -9 -10 -2 9 13 16 12 5 -16 -12 -19 -37 -46 -38 -39 -35 -42 -36 -43 -41 -48 -42 -31 -27 -34 -26 -25 -21 -14 -2 -1 7 10 -2 -3 -25 -34 -38 -33 -28 -24 -19
2026-08-08 03:59:42,58,-16 -28 -22 -38 -68 -66 -66 -66 -70 -86 -82 -85 -77 -83 -75 -57 -61 -63 -55 -47 -33 -43 -27 -17 -11 -17 -33 -28 -34 -36 -48 -42 -44 -36 -38 -34 -34 -26 -22 -12 -16 -14 -7 11 7 7 21 27 31 45 39 27 15 21 -3 7 9 11 8 12 18 20 26 30 44 28 42 34 52 58 62 72 68 73 81 87 79 67 43 39 31 37 27 13 25 11 19 25 12 24 18 32 22 32 46 44 44 44 62 56 66 66 64 47 35 17 -5 -7 -23 -23 -19 -31 -31 -31 -39 -43 -39 -27 -25 -28 -22 -26 -14 -6 2 20 18 16 30 34 6 -6 4 -4 -5 1 -7 -9 -7 -1 3 1 11 9 13 21 23 29 33 36 40 50 52 54 50 38 22 18 22 8 14 6 12 24 23 17 27 29 35 29 51 39 51 65 47 63 69 75 79 73 42 44 22 22 4 8 0 0 4 -6 -6 -10 -10 -12 -22 -7 -7 -9 -3 9 11 7 7 19 29 29 27 3 -21 -45 -46 -62 -56 -70 -78 -78 -80 -86 -68 -76 -70 -70 -68 -54 -54 -54 -47 -37 -35 -23 -11 -9 -11 -25 -33 -29 -35 -43 -47 -47 -37 -32 -38 -24 -26 -26 -22 -16 -10 6 0 6 18 6 32 22
2026-08-08 04:09:39,54,-77 -92 -86 -94 -89 -91 -95 -91 -84 -78 -82 -67 -57 -55 -60 -42 -24 -32 -29 -45 -43 -46 -66 -64 -64 -55 -57 -63 -66 -50 -64 -54 -45 -33 -37 -34 -22 -18 -5 -1 3 1 14 20 24 21 3 -13 -11 -10 -22 -8 -9 -7 -3 -1 -6 4 14 23 23 39 36 46 56 74 67 79 81 86 92 104 88 75 59 49 46 36 28 33 31 37 31 30 30 12 21 13 11 13 22 18 14 25 9 27 21 30 30 40 53 49 11 10 12 2 -6 -3 -7 -5 -12 -10 -2 2 7 3 9 18 28 30 36 43 41 45 66 58 76 69 69 51 29 36 28 32 37 27 33 29 38 34 36 43 47 57 54 70 64 76 91 89 107 112 108 112 116 93 75 63 40 44 24 20 13 9 5 6 0 4 0 9 -3 -5 -2 -14 -20 -11 -7 -13 -5 -4 -2 4 -3 -17 -31 -45 -54 -58 -68 -61 -69 -67 -62 -70 -70 -70 -67 -61 -67 -56 -40 -42 -10 5 -3 5 12 12 36 24 3 -13 -21 -22 -20 -26 -25 -27 -21 -17 -26 -20 -18 -25 -23 -9 -15 2 10 0 11 13 17 11 32 26 20 3 -15 -41 -48 -42 -50 -44 -51 -53 -53 -60 -48 -54 -64 -65 -65 -73 -68 -66
2026-08-08 04:19:49,55,70 33 9 -20 -16 -37 -25 -18 -22 -11 -7 -36 -24 -37 -17 -10 -18 1 1 16 24 39 51 50 50 81 65 48 4 -25 -29 -53 -38 -42 -15 -35 -32 -40 -33 -29 -22 -14 -23 -19 -8 -4 -1 19 14 42 37 53 48 44 7 3 -14 -38 -62 -55 -23 -36 -44 -37 -41 -30 -30 -23 -35 -16 -20 3 -9 22 10 33 41 40 80 59 19 -10 -22 -23 -43 -19 -4 -4 -13 -25 -18 -42 -43 -11 -20 0 -5 7 -6 10 29 37 32 48 71 63 66 26 -19 -23 -48 -28 -37 -33 -2 -38 -30 -39 -43 -12 -32 -33 -33 2 6 -15 1 24 28 39 47 22 70 73 93 36 16 -9 -33 -38 -30 -27 -31 -32 -36 -40 -25 -41 -18 -14 -7 -27 -8 4 19 11 42 18 33 41 52 60 43 7 2 -30 -11 -15 -24 16 -1 -9 -30 -18 -2 -7 -15 4 8 11 23 46 46 45 53 60 68 83 71 90 58 21 5 -8 0 -5 -17 6 6 -7 1 -3 -12 -24 -13 -9 -6 14 25 37 28 40 39 51 50 62 77 85 8 24 -21 -25 -22 -26 -27 -35 -52 -36 -32 -61 -53 -38 -22 -35 -11 -20 -32 -13 -5 -6 -10 17 21 52 8 -37 -49 -46 -50 -43 -23 -56 -44 -41 -37 -38
2026-08-08 04:28:50,60,18 18 19 20 20 22 24 22 21 18 14 13 10 11 11 10 14 11 10 12 11 11 9 10 8 13 11 11 11 11 11 14 14 13 14 12 9 5 4 5 6 7 2 2 3 4 3 1 3 1 2 1 0 2 1 3 2 4 5 3 4 2 0 -7 -8 -12 -8 -8 -8 -10 -12 -13 -12 -11 -13 -13 -11 -12 -10 -11 -11 -12 -9 -9 -7 -6 -6 -8 -7 -8 -10 -18 -18 -18 -18 -18 -18 -19 -21 -20 -17 -19 -20 -17 -18 -19 -16 -15 -14 -15 -16 -17 -13 -13 -13 -12 -16 -22 -22 -22 -22 -20 -19 -20 -19 -24 -19 -21 -20 -19 -19 -19 -20 -17 -16 -18 -15 -14 -14 -16 -16 -21 -23 -23 -25 -23 -24 -22 -24 -23 -22 -24 -20 -22 -22 -16 -10 3 8 33 40 38 24 8 1 -4 -12 -2 8 14 21 25 22 22 25 31 28 30 26 23 26 27 25 23 24 21 23 22 23 19 19 17 12 11 10 11 13 10 4 3 3 7 2 6 6 4 6 4 6 6 6 5 1 -5 -5 -3 -5 -8 -9 -7 -10 -9 -6 -5 -5 -2 -6 -11 -6 -5 -4 -6 -8 -8 -9 -10 -11 -2 -8 0 6 -8 -6 0 9 -2 -9 -7 2 16 18 -54 -31 47 76 98
2026-08-08 04:37:04,54,-11 -2 0 -4 11 19 18 34 38 41 37 52 48 50 63 63 68 48 42 19 17 12 6 14 13 9 4 6 0 19 11 16 10 14 19 27 21 28 28 43 35 39 58 50 55 53 37 30 18 9 9 -3 -6 -4 -3 -17 -17 -16 -8 -19 -29 -13 -18 -6 -7 -1 -1 2 10 19 7 15 16 -2 -21 -33 -43 -36 -34 -43 -43 -37 -40 -40 -47 -41 -37 -36 -34 -35 -29 -27 -28 -22 -10 -13 -17 -2 -24 -20 -47 -49 -64 -58 -70 -65 -63 -56 -72 -64 -67 -65 -60 -52 -52 -39 -43 -38 -38 -18 -17 -23 -2 -12 -10 -9 3 4 -4 -30 -29 -41 -44 -48 -42 -53 -47 -42 -34 -44 -41 -33 -26 -32 -28 -27 -13 -13 0 -4 3 15 9 24 20 27 33 15 2 -8 -9 -17 -27 -14 -16 -15 -13 -21 -6 -4 -1 1 1 10 20 15 35 29 26 32 43 45 47 52 36 17 11 23 6 16 13 17 17 22 22 14 15 33 22 22 32 49 33 48 48 60 57 57 40 26 18 9 15 6 6 8 5 3 -2 10 4 1 17 26 18 32 25 27 36 44 42 49 21 14 0 -12 -7 -25 -18 -28 -20 -25 -25 -26 -32 -24 -19 -17 -24 -4 -14 -7 5 9 10 6
2026-08-08 04:49:27,60,-81 -76 -70 -66 -61 -54 -45 -35 -35 -29 -25 -16 -7 -4 -6 -7 -7 -9 -9 -10 -9 -9 -9 -11 -21 -27 -26 -19 -11 -8 -4 5 8 11 11 8 6 5 3 1 1 1 -1 0 -2 -1 -1 -1 -1 -1 0 -1 0 -1 -1 -2 -3 -2 -2 -3 -3 -3 -2 -1 -1 0 0 0 1 1 3 2 4 3 3 4 3 3 3 3 4 6 5 6 6 6 7 7 8 8 8 8 11 11 11 13 13 12 13 14 14 14 15 15 15 15 16 16 17 18 17 18 19 18 20 19 22 22 22 23 23 22 23 22 23 22 21 23 23 21 21 21 21 22 21 21 21 21 22 22 22 22 21 21 20 21 19 18 18 17 17 17 16 16 15 15 14 15 14 15 14 14 14 14 14 14 14 14 13 12 10 10 8 7 6 4 5 3 3 3 2 2 2 1 0 2 2 0 1 1 0 1 2 0 -1 -4 -5 -7 -7 -9 -10 -10 -10 -11 -11 -13 -12 -11 -12 -12 -12 -11 -11 -11 -11 -10 -11 -11 -10 -11 -10 -12 -12 -15 -16 -16 -17 -18 -17 -17 -18 -20 -18 -19 -19 -17 -19 -18 -19 -19 -18 -18 -17 -18 -18 -18 -18 -20 -23 -22 -23 -22 -23 -24 -25 -25
2026-08-08 04:59:48,58,24 34 34 49 53 69 65 62 34 4 -8 -19 -17 -31 -29 -34 -38 -32 -33 -29 -41 -25 -32 -20 -18 -14 -7 1 11 13 22 30 34 36 19 -5 -17 -21 -34 -36 -30 -36 -27 -37 -41 -33 -30 -26 -22 -12 -9 13 13 20 30 34 42 49 47 41 13 -18 -24 -30 -40 -41 -29 -23 -35 -30 -38 -30 -22 -17 -17 -13 -3 0 20 16 28 37 43 63 65 52 44 16 -3 -3 -23 -33 -34 -24 -22 -30 -31 -29 -21 -13 -12 -10 -6 -2 1 17 19 33 52 56 60 48 45 23 -3 -9 -18 -30 -26 -34 -29 -27 -21 -34 -26 -28 -16 -19 -15 -7 13 4 14 28 40 41 47 53 33 10 -14 -22 -22 -23 -19 -23 -21 -14 -26 -26 -12 -13 7 1 13 28 22 40 53 51 61 53 56 34 14 -12 -15 -31 -31 -29 -38 -30 -28 -34 -23 -17 -19 -25 -14 2 6 12 37 37 37 51 54 46 42 12 -13 -35 -33 -40 -34 -42 -48 -47 -29 -37 -37 -30 -18 -26 -2 -3 9 13 21 30 40 40 34 17 -1 -21 -25 -22 -34 -30 -14 -23 -17 -19 -23 -12 -12 2 9 15 17 35 48 48 54 54 45 13 3 -17 -12 -26 -16 -28 -11 -19 -29 -23 -22 -16 -4 -4 7 17 15 29
2026-08-08 05:19:49,62,-43 -49 -43 -40 -28 -20 -19 -13 -5 3 4 14 16 34 35 21 -5 0 -28 -20 -21 -13 -19 -17 -18 -18 -14 -10 -13 -5 3 8 20 22 23 47 47 47 56 64 68 56 41 35 11 8 4 -4 -10 -9 -7 -13 -8 -6 -14 -2 3 -1 11 24 26 24 35 41 41 55 64 66 48 28 19 -3 -5 -10 0 -10 -14 -11 -9 -7 -20 -16 2 3 -1 -7 11 22 30 32 32 39 53 55 32 10 -6 -8 -17 -17 -27 -26 -26 -22 -27 -37 -25 -27 -12 -6 10 13 17 33 35 48 46 44 40 27 9 -17 -30 -46 -42 -41 -39 -49 -43 -50 -50 -44 -48 -29 -33 -25 -22 -4 -12 7 13 7 -7 -28 -36 -46 -47 -49 -45 -53 -46 -56 -42 -48 -43 -39 -31 -28 -20 -14 -6 3 11 25 30 22 6 -7 -27 -29 -45 -38 -42 -46 -37 -49 -37 -41 -32 -32 -18 -14 -11 -7 3 14 26 22 35 43 23 -1 -10 -26 -26 -21 -25 -27 -25 -24 -14 -12 -15 -5 -1 -1 0 4 12 25 39 45 35 22 6 2 -3 -17 -17 -7 -12 -12 -10 -9 7 -1 9 6 20 24 33 47 37 57 42 28 28 19 13 9 13 18 20 12 31 9 1 -9 -54 -94 20 87 63 43 53 64
2026-08-08 05:29:48,60,-21 -25 -12 8 4 17 33 50 46 51 -1 -5 -8 -28 -35 -27 -30 -42 -6 -37 -37 -16 -12 -7 -3 -11 -2 18 27 27 15 40 44 73 69 78 42 30 7 -13 -40 -16 -35 -19 -15 -10 -26 -21 -25 -17 -20 16 1 9 6 50 38 35 47 56 48 53 33 17 -34 -30 -41 -33 -49 -24 -4 -39 -31 -22 -42 -18 -17 -9 4 0 29 21 41 50 50 71 59 32 20 8 -3 -43 -30 -18 -34 -13 -13 -24 -20 -15 5 1 2 18 27 39 32 64 76 77 41 22 -10 -6 -9 -17 -12 -8 -31 -35 -19 -38 -18 -17 -21 -13 0 16 13 37 10 34 46 55 51 20 4 -47 -51 -47 -58 -58 -65 -61 -60 -56 -84 -59 -63 -46 -30 -38 -21 -45 -16 -16 1 17 9 30 30 3 -29 -56 -56 -68 -59 -51 -50 -42 -54 -57 -81 -48 -52 -31 -47 -31 -22 -2 -1 15 28 28 44 69 29 30 2 -26 -21 -37 -28 -12 -15 -35 -23 -10 -10 -1 -9 -8 20 12 37 41 66 58 58 79 99 48 20 13 -11 -15 -14 6 -25 -17 -20 -12 -28 -11 -19 -2 -6 11 3 11 28 36 45 45 73 90 98 95 95 68 16 16 -15 -11 -30 -22 -14 -33 -17 -32 -32 -15 -23 -27 -2 22
2026-08-08 05:38:29,82,-83 -73 -69 -65 -76 -70 -44 -37 -31 -31 -33 -15 -16 -15 -12 -19 -18 -19 -24 -31 -41 -43 -28 -25 -14 -13 -13 -13 -13 -10 -8 -7 -7 -7 -5 -4 -4 -3 -2 0 -1 -1 -3 -3 -2 -2 0 -1 0 1 0 3 3 3 4 5 5 4 3 2 3 2 4 3 4 5 6 4 7 7 7 8 9 9 7 7 6 7 7 7 8 8 8 8 10 9 10 13 13 13 14 13 13 13 13 14 15 16 17 17 17 19 19 20 19 20 21 20 20 21 20 20 20 20 21 21 21 21 22 23 22 24 23 23 23 22 21 21 22 20 21 22 20 22 21 21 21 22 24 23 23 23 22 21 22 20 21 21 20 19 19 19 19 20 20 19 20 20 22 21 19 18 18 16 18 16 16 15 16 14 16 15 16 14 15 14 15 14 15 14 13 11 10 9 8 8 7 7 6 5 7 6 5 5 5 4 5 5 4 3 -1 -1 -4 -5 -5 -6 -7 -8 -9 -9 -9 -11 -11 -11 -11 -9 -10 -11 -10 -11 -14 -15 -17 -18 -21 -22 -23 -23 -25 -24 -25 -25 -24 -26 -26 -25 -26 -25 -26 -26 -29 -31 -32 -33 -35 -35 -36 -36 -37 -36 -37 -38 -38 -36 -37 -36
2026-08-08 05:47:31,54,-76 -72 -67 -39 -79 -70 -86 -98 -65 -73 -81 -64 -52 -56 -71 -51 -63 -50 -54 -22 -54 -41 -49 -17 -20 8 -12 5 -31 9 -14 6 -6 3 -17 -29 8 0 -4 9 -23 -3 1 -18 -14 6 -13 -5 -5 12 8 12 21 41 9 6 14 42 31 23 27 20 24 24 17 33 33 17 14 26 26 27 11 19 44 36 32 53 25 37 26 26 26 15 23 31 15 24 4 20 17 25 13 14 22 18 35 31 39 40 44 56 61 61 53 70 66 66 75 75 87 59 80 32 52 61 49 57 54 38 34 47 51 35 40 36 32 49 49 57 38 46 62 50 47 39 51 76 56 28 41 21 9 22 6 10 -13 -9 -1 -12 -28 -16 -27 -7 1 -22 -30 -30 -22 -9 -33 -9 -8 -8 -12 -15 -11 -27 -42 -18 -54 -41 -49 -49 -56 -44 -56 -56 -51 -55 -59 -42 -54 -46 -37 -53 -37 -52 -8 -44 -11 -31 -3 -30 -30 -22 -53 -21 -33 -32 -24 -32 -24 -31 -27 -47 -30 -22 -2 -17 -37 -21 -28 -20 -24 -11 -19 -11 10 -14 22 11 -1 3 7 -12 -8 0 -3 -19 -27 -6 -26 -10 -17 -13 -17 -12 -4 8 9 -11 -7 6 22 14 11 43 15 35 20 20 12 5 -7 17
2026-08-08 05:57:17,58,-35 -27 -19 -15 -24 -4 -12 -32 -24 -5 -5 7 19 15 14 -2 22 14 26 33 -7 -11 -7 -8 -4 -12 -8 0 -17 -9 -9 11 3 -18 -10 -6 2 -10 5 21 13 33 12 48 32 52 28 11 11 11 7 7 10 2 22 -2 22 -3 21 33 1 5 16 24 28 48 39 43 39 55 75 42 62 50 70 42 33 25 13 29 41 28 20 24 12 12 7 11 19 -5 10 18 2 18 30 13 21 21 9 17 16 12 12 8 -32 -1 -29 -21 3 -30 -26 -34 -34 -14 -39 -43 -31 -15 -39 -36 -28 -24 -28 -28 -21 -21 3 -29 -13 -42 -38 -42 -30 -31 -43 -43 -51 -35 -64 -28 -28 -24 -32 -41 -17 -17 11 -9 14 -6 14 10 1 1 -19 -31 -19 -12 -36 -32 -8 -12 -37 -25 -33 -41 -21 -18 -22 -26 -22 -18 -31 -31 -11 -23 -16 -16 -20 -48 -36 -45 -33 -53 -37 -41 -38 -34 -26 -30 -46 -43 -31 -47 -23 -27 -44 -36 -32 -16 -21 -9 -37 -13 -25 -26 -42 -62 -58 -46 -19 -19 -3 -23 5 0 -12 4 20 -1 3 3 27 27 46 26 50 42 62 41 21 29 33 45 8 52 36 32 51 47 39 31 55 26 46 50 42 54 53 53 45 45 49 56 56 76
2026-08-08 06:09:49,54,-21 -26 -28 -27 -32 -35 -31 -32 -37 -30 -35 -24 -21 -20 -17 -12 -12 -4 -1 8 11 20 19 25 22 9 -6 -22 -28 -31 -37 -39 -39 -37 -39 -38 -44 -46 -45 -41 -38 -35 -35 -28 -31 -22 -21 -17 -17 -4 4 5 7 5 2 -25 -27 -36 -36 -32 -30 -30 -24 -29 -28 -23 -18 -17 -15 -6 -1 -1 4 9 16 18 20 30 42 42 47 52 42 29 11 8 -2 2 0 2 7 0 2 5 1 4 13 10 14 22 24 28 37 36 44 48 49 60 67 72 76 61 50 31 29 19 22 18 27 19 18 13 10 14 15 21 23 25 30 28 33 35 40 49 48 46 59 61 60 52 32 24 9 3 8 10 3 4 -1 -5 -8 -2 1 -5 0 9 6 8 23 17 24 32 32 42 40 32 15 5 -1 -2 -7 -2 -4 -6 -8 -7 -11 -4 -6 -7 -1 5 1 4 10 15 20 23 26 33 36 30 18 2 -9 -12 -20 -13 -17 -18 -14 -21 -25 -23 -27 -20 -22 -9 -7 -6 -8 -2 0 12 11 13 22 18 22 14 4 -8 -19 -25 -28 -31 -32 -34 -37 -41 -37 -41 -42 -44 -33 -35 -33 -35 -26 -25 -21 -19 -12 -7 -2 -2 -9 -23 -31 -35 -43 -41 -41 -38 -38 -36
2026-08-08 06:19:50,56,-18 -18 -8 -20 -18 -22 -19 -35 -25 -15 -13 -15 -1 -4 4 8 18 22 36 38 53 59 53 69 67 53 18 2 -14 -18 -20 -20 -20 -25 -23 -23 -29 -35 -35 -17 -20 -16 -12 -4 -6 -12 0 -1 27 17 27 31 47 23 -10 -32 -36 -42 -42 -26 -26 -15 -37 -23 -27 -23 -15 -21 -4 -2 14 20 32 40 39 53 55 67 61 33 17 -8 -18 -24 -26 -14 -22 -20 -13 -31 -31 -31 -27 -21 -21 4 -4 14 12 16 24 36 41 49 53 71 73 51 19 -6 2 -12 -6 2 -6 -9 -15 -15 -17 -21 -17 -17 -10 2 -2 -8 -4 8 18 29 25 23 41 47 29 7 -24 -40 -44 -38 -38 -38 -28 -33 -33 -41 -39 -33 -29 -25 -16 -18 -8 0 10 18 28 29 45 37 11 -11 -35 -30 -42 -30 -22 -20 -32 -30 -31 -31 -25 -27 -9 -17 1 2 16 10 20 30 30 40 49 51 41 7 -5 -7 -25 -32 -32 -24 -18 -24 -28 -38 -25 -33 -21 -15 -13 -9 -1 18 22 32 44 44 42 60 63 67 51 27 -3 -17 -20 -8 -18 -20 -24 -22 -26 -25 -29 -21 -17 -13 -19 -3 4 -4 10 8 18 24 34 43 39 13 5 -25 -17 -23 -20 -12 -6 0 -8 -8 6 7 13 21
2026-08-08 06:37:05,49,94 84 75 74 73 76 58 81 76 63 57 80 99 78 76 71 62 49 12 10 5 20 19 21 12 7 26 16 27 10 13 24 26 29 4 -5 -23 -28 -33 -22 -20 -33 -34 -11 -28 -30 -27 -28 -13 -11 -4 -17 -22 4 -33 -38 -35 -44 -30 -51 -44 -45 -47 -48 -37 -54 -48 -37 -54 -27 -28 6 -31 -52 -53 -51 -64 -57 -54 -52 -65 -54 -39 -76 -38 -23 -20 -25 -27 -20 -17 -26 -28 -37 -58 -39 -48 -62 -55 -24 -33 -51 -52 -45 -34 -28 3 -10 5 16 -22 -43 -44 -53 -39 -52 -53 -34 -44 -29 -30 -11 -21 -22 1 -16 3 13 -4 -9 -22 -36 -37 -38 -19 -24 -18 -23 -20 -37 -23 -20 -25 -10 -4 3 14 37 32 18 29 16 31 53 44 39 50 72 67 54 45 31 6 13 20 11 13 4 11 34 20 15 26 17 27 38 17 44 27 53 36 67 62 52 71 58 41 39 26 13 8 23 13 40 23 -2 32 11 26 25 7 22 21 24 15 17 28 27 34 24 39 50 33 35 30 13 8 19 17 8 -1 -6 4 3 2 13 -1 2 -3 24 11 -3 24 -5 -2 16 19 14 -3 -13 -18 -27 -32 -33 -39 -40 -53 -46 -40 -57 -50 -27 -57 -26 -31 -44
2026-08-08 06:49:50,58,78 64 46 24 8 -3 -5 -11 -19 -17 -9 -19 -14 0 -8 4 2 4 20 22 33 39 35 45 41 55 67 60 80 68 42 28 18 4 1 -5 3 -5 -1 -7 3 7 -2 -8 2 0 4 4 14 23 21 29 35 45 55 27 14 -8 -18 -20 -28 -24 -36 -29 -29 -31 -35 -31 -19 -21 -13 -12 -10 -6 -2 18 22 26 31 43 51 29 7 -11 -13 -26 -30 -34 -26 -24 -28 -36 -33 -33 -29 -41 -25 -21 -23 -15 -16 2 12 20 18 32 40 31 11 -13 -17 -51 -45 -35 -50 -44 -40 -40 -40 -56 -54 -46 -33 -47 -25 -27 -19 -13 7 -4 6 10 4 10 -20 -30 -47 -41 -43 -45 -41 -37 -51 -42 -36 -44 -42 -26 -26 -22 -22 -13 -3 9 15 13 25 9 -2 -20 -48 -42 -44 -44 -34 -35 -41 -41 -37 -39 -41 -37 -32 -26 -10 -4 -10 10 10 18 17 31 39 47 43 29 13 -6 -16 -18 -26 -22 -24 -8 -15 -23 -23 -21 -13 -11 -9 3 8 12 18 30 32 42 48 47 65 67 61 41 25 7 2 0 12 0 10 2 0 3 9 11 11 11 13 21 19 34 36 38 52 64 62 46 37 19 1 -3 -5 -1 5 -4 0 -10 2 -12 -10 8 11 19 19 29
2026-08-08 06:59:42,56,7 5 11 19 29 39 55 59 71 79 77 67 59 43 47 39 47 49 47 45 57 31 37 37 39 33 45 41 53 51 45 57 55 57 61 57 51 37 25 11 3 5 -7 -3 -3 -1 -9 -11 -13 -7 -13 -21 -11 -13 -11 1 1 -1 11 9 13 15 15 15 9 -11 -21 -35 -51 -43 -61 -47 -45 -55 -51 -55 -55 -61 -53 -57 -53 -57 -45 -43 -33 -29 -23 -17 -13 -17 -27 -35 -51 -57 -49 -47 -32 -29 -32 -37 -26 -26 -14 -20 -16 -10 -12 -2 6 4 12 12 22 16 16 0 -12 -16 -44 -48 -32 -40 -40 -46 -40 -40 -40 -34 -42 -36 -32 -40 -24 -20 -36 -16 -14 -22 -10 -14 -6 -6 0 -20 -36 -48 -60 -56 -60 -68 -48 -62 -54 -66 -56 -62 -64 -54 -56 -56 -50 -58 -42 -42 -42 -38 -24 -28 -14 -8 -2 -26 -24 -40 -38 -40 -36 -28 -24 -8 -8 -6 -8 4 12 8 14 30 30 34 46 44 46 54 52 68 68 70 56 44 26 20 12 22 22 22 18 18 16 10 4 14 14 20 20 18 18 24 32 36 42 40 52 52 54 56 60 62 48 46 32 12 6 20 2 6 2 10 -4 4 -8 0 -2 4 2 4 10 2 10 18 26 22 18 40 44 48
2026-08-08 07:09:08,72,22 23 17 20 22 27 26 32 32 38 41 39 50 48 43 34 23 17 8 8 4 4 3 2 0 2 1 -5 1 1 -2 4 8 12 13 16 14 18 22 24 27 25 19 15 4 -5 -6 -13 -13 -13 -19 -19 -15 -20 -18 -14 -19 -9 -8 -9 -6 -4 -5 0 8 12 1 -3 -7 -20 -19 -18 -30 -27 -31 -24 -30 -29 -30 -27 -27 -28 -23 -18 -19 -17 -16 -12 -16 -19 -28 -33 -35 -43 -39 -40 -36 -29 -35 -31 -30 -27 -26 -26 -23 -21 -19 -17 -9 -16 -16 -30 -35 -34 -35 -41 -37 -37 -37 -32 -35 -35 -32 -26 -25 -23 -18 -17 -14 -21 -27 -31 -32 -33 -35 -29 -33 -33 -32 -23 -24 -20 -17 -12 -5 -2 3 -5 -6 -14 -6 -15 -9 -11 -7 -5 0 3 3 8 6 16 15 25 27 30 33 43 43 42 46 36 41 32 38 40 40 39 44 48 40 45 44 50 50 61 57 55 60 58 56 55 58 44 44 41 47 40 39 36 37 31 36 39 32 34 34 37 39 42 40 30 32 18 12 9 6 4 -1 -4 -3 -5 -10 -6 -9 -8 -9 -10 -12 -6 -8 -10 -6 -12 -3 -2 -5 0 -3 4 4 -1 -2 -14 -24 -33 -39 -47 -51 -57 -59 -67 -70 -75 -82 -83
2026-08-08 07:29:49,60,41 61 49 29 -16 -8 -12 -20 -36 -24 -41 -33 -25 -33 -17 -30 -14 -22 -26 -2 -15 1 5 9 17 41 28 36 24 -8 -4 -37 -37 -29 -49 -25 -53 -38 -42 -46 -46 -30 -11 -19 -11 -15 9 -3 28 16 40 32 48 35 27 27 -1 7 -6 -10 6 -22 -14 -6 1 5 -19 -7 -27 4 12 20 20 36 32 47 47 55 47 67 82 54 62 10 -6 14 9 -7 5 1 21 12 0 8 24 24 36 23 43 51 35 75 58 42 66 66 46 41 -3 17 13 -7 -7 -12 -4 8 -24 -12 -25 -21 -13 7 -1 15 10 38 38 22 46 29 45 33 -3 -7 -11 -40 -36 -52 -36 -56 -53 -49 -45 -37 -45 -34 -26 -22 -22 -14 -14 -7 1 -11 13 13 0 -36 -60 -64 -72 -73 -65 -45 -65 -73 -77 -70 -46 -54 -50 -34 -43 -27 -23 1 -11 1 16 12 20 0 -12 -49 -45 -41 -41 -29 -41 -22 -18 -38 -38 -22 -23 -3 -3 17 17 12 44 36 48 12 12 -21 -5 -13 -17 -29 -17 -6 6 -14 -14 -10 5 17 13 17 29 44 32 56 56 36 20 -9 -29 -29 -41 -41 -26 -22 -18 -14 -18 -15 -15 5 5 17 21 40 44 52 60 44 67 83 63 59 35 11 18 -2
2026-08-08 07:37:07,60,21 24 21 19 19 17 16 15 14 15 15 13 13 15 16 14 15 16 17 19 15 20 17 17 12 12 9 7 7 4 5 5 5 5 2 2 3 3 3 5 4 5 5 4 5 6 6 6 5 4 -1 -2 0 -4 -1 -5 -2 -3 -4 -2 -3 -5 -2 -3 -3 -5 0 -2 1 2 2 2 4 0 -1 -3 -5 -4 -8 -9 -4 -6 -9 -4 -6 -6 -7 -6 -6 -5 -4 -8 -6 -6 -5 1 -2 -1 -3 -3 -5 -8 -9 -10 -12 -9 -9 -10 -11 -11 -11 -10 -9 -11 -10 -8 -8 -6 -4 -4 -7 -7 -4 -2 -7 -7 -10 -9 -10 -11 -10 -11 -12 -11 -11 -13 -12 -13 -14 -12 -9 -8 -9 -8 -10 -9 -10 -11 -13 -15 -14 -17 -14 -16 -15 -17 -17 -18 -18 -16 -17 -18 -16 -14 -14 -14 -13 -9 -12 -12 -14 -12 -12 -14 -17 -17 -20 -18 -20 -18 -19 -21 -22 -20 -19 -21 -20 -17 -19 -21 -20 -17 -20 -11 -9 -5 -2 -3 -6 -5 -6 -6 -2 -4 -2 0 -1 -2 -1 -1 -1 2 2 3 4 3 7 9 8 8 6 4 4 6 6 7 5 7 8 5 7 8 7 9 10 8 12 9 11 6 3 1 6 6 11 15 20 24 32 40 48 55 63 72 77 83
2026-08-08 07:47:43,62,62 31 20 1 -5 -16 -13 -26 -31 -35 -28 -27 -22 -14 -13 -20 -29 -32 -44 -65 -56 -45 -34 -34 -41 -44 -47 -50 -46 -37 -32 -23 -18 -20 -15 -36 -35 -46 -54 -43 -50 -47 -47 -44 -45 -38 -25 -27 -16 -9 -14 -7 -13 -14 -35 -44 -43 -37 -36 -39 -36 -41 -25 -32 -17 -26 -10 -7 0 11 -2 4 -7 -18 -13 -30 -18 -11 -16 -11 -14 -10 -21 -10 -7 -8 12 13 22 27 12 16 -3 -6 -9 -13 -8 -5 -12 -7 -9 2 3 6 7 13 22 21 30 27 45 34 49 62 65 73 66 61 40 39 27 30 19 16 22 19 24 27 24 30 35 44 47 48 46 49 56 69 70 70 85 90 73 54 48 45 40 43 48 36 31 34 25 31 24 37 42 33 47 60 61 64 81 91 94 89 94 81 77 72 55 66 57 53 50 47 32 46 33 40 37 50 50 49 52 55 66 80 77 72 71 52 36 17 10 5 4 10 3 -12 -5 4 8 -7 2 3 9 12 19 18 25 23 30 35 12 -3 -17 -28 -35 -48 -51 -45 -58 -57 -52 -61 -69 -58 -49 -46 -53 -43 -28 -31 -26 -14 -19 -30 -45 -64 -80 -81 -92 -93 -102 -106 -111 -116 -119 -114 -120 -119 -112 -105 -108 -96
2026-08-08 08:08:12,61,-46 -33 -32 -23 -18 -9 -4 -10 -5 8 13 14 19 28 25 46 31 48 53 67 36 25 6 31 20 21 14 15 12 13 7 24 5 6 3 16 29 38 43 48 41 54 52 37 46 59 36 21 30 3 16 1 6 23 -7 10 -13 0 -3 -10 -1 -8 -3 10 35 13 14 31 40 29 14 -21 -20 -7 -26 -13 -4 -30 -25 -32 -15 -34 -29 -24 -23 -26 -21 -12 -2 -1 -4 5 22 11 8 -11 -38 -29 -32 -31 -25 -52 -59 -58 -49 -52 -31 -38 -25 -20 -31 2 -24 -7 -2 19 -12 -15 18 7 0 -31 -22 -28 -39 -58 -45 -24 -19 -42 -29 -28 -19 -30 -21 -7 -22 -25 -16 -11 -2 11 -16 5 30 7 -8 2 -29 -4 -31 -18 -21 -20 -35 -26 -45 -32 -3 -9 0 -7 -18 -25 -12 -11 22 3 20 13 3 -12 -31 -42 -21 -60 -51 -34 -29 -24 -31 -30 -40 -11 -18 -13 -12 -3 10 19 12 45 30 -9 -7 -2 -29 -24 -31 -10 -33 4 -23 -26 -5 -7 -2 -1 -4 -3 18 7 28 13 10 47 28 22 3 -4 -15 -30 -13 -8 -27 -2 -17 -4 -31 11 8 21 26 11 44 25 54 31 64 77 79 64 41 46 23 20 13 14 19 28 21 30 40 37 54 39
2026-08-08 08:18:16,57,-11 -7 -3 -7 -5 -3 -16 0 -16 -20 -28 -18 -18 -19 -13 -23 -19 -15 -21 -26 -24 -16 -10 -14 -2 -12 -17 -3 -9 9 -1 -3 -14 -16 -22 -16 -20 -20 -24 -19 -15 -17 -35 -21 -21 -16 -22 -12 -8 -12 -4 -8 -1 -7 -1 1 -5 -15 -25 -24 -22 -18 -22 -30 -12 -21 -27 -29 -13 -27 -27 -17 -22 -16 -22 -14 -8 -14 -11 3 -3 -3 -3 -3 -7 -14 -6 -12 -12 -16 -22 -5 -11 -9 -13 -7 -13 -9 -2 10 16 14 10 14 17 17 17 15 9 5 9 2 14 12 4 10 8 19 9 13 9 25 23 25 26 36 26 32 34 36 35 43 37 35 33 29 31 26 18 14 26 28 30 35 29 21 35 41 37 37 42 42 46 40 44 40 43 53 57 61 53 57 41 40 34 36 38 32 48 39 31 31 23 37 31 39 30 32 30 32 36 32 41 29 41 45 49 45 39 40 32 16 16 20 6 3 7 1 1 3 9 3 2 -2 4 6 0 10 3 13 7 5 13 15 11 -8 -16 -30 -24 -28 -42 -26 -47 -33 -33 -49 -35 -41 -28 -36 -42 -36 -48 -40 -34 -39 -29 -29 -35 -35 -15 -30 -42 -40 -60 -62 -70 -58 -59 -63 -59 -65 -57 -63 -62 -68
2026-08-08 08:29:50,56,-14 -20 -35 -37 -49 -43 -47 -51 -51 -55 -49 -51 -41 -31 -31 -17 -13 -3 -1 15 19 15 31 43 41 59 61 41 15 1 -3 -17 -17 -19 -27 -27 -21 -29 -29 -11 -9 -5 -6 6 16 22 30 34 46 54 64 62 66 60 54 34 22 6 6 4 -8 4 -2 4 -8 0 4 2 8 8 8 18 20 32 40 36 42 46 56 42 16 2 -13 -19 -35 -43 -29 -41 -51 -39 -45 -39 -37 -41 -31 -27 -19 -13 -9 -7 19 11 23 29 21 37 45 61 45 27 7 -11 -17 -37 -41 -39 -37 -27 -33 -41 -47 -42 -32 -20 -20 -8 0 0 14 16 22 40 36 44 48 56 50 40 16 -2 -8 -14 -22 -12 -20 -20 -14 -20 -22 -22 -18 -14 -6 4 16 18 26 24 34 36 48 39 25 -5 -9 -25 -29 -29 -29 -25 -27 -27 -33 -31 -23 -31 -17 -7 3 5 3 15 29 29 35 43 55 47 31 9 -7 -21 -35 -33 -25 -41 -37 -37 -41 -39 -37 -34 -20 -26 -8 -16 8 10 22 30 28 40 50 54 48 50 40 10 4 -10 -12 -20 -26 -30 -20 -20 -16 -10 -20 -18 -6 2 8 10 12 26 24 36 44 44 44 27 11 -7 -11 -15 -25 -23 -19 -27 -27 -37 -39 -33 -29 -13
2026-08-08 08:39:50,58,6 8 12 14 18 28 24 18 0 -18 -34 -36 -36 -36 -34 -34 -38 -40 -27 -35 -17 -17 -17 1 5 1 13 25 27 35 41 51 51 61 65 71 65 49 28 30 6 8 6 -2 12 10 6 2 6 14 8 18 28 18 30 40 48 46 59 59 67 65 79 81 71 61 47 35 13 9 9 -3 7 -1 3 -1 3 6 4 10 6 22 18 26 40 42 42 48 52 46 34 18 14 -12 -18 -32 -22 -33 -27 -39 -39 -27 -33 -37 -27 -35 -17 -9 -19 -17 -7 3 -3 11 9 1 -12 -22 -48 -54 -68 -66 -64 -72 -62 -68 -66 -66 -66 -52 -60 -48 -44 -28 -34 -28 -19 -17 -9 1 -7 11 11 19 -7 -33 -41 -47 -63 -59 -55 -65 -65 -57 -65 -64 -58 -50 -38 -40 -34 -30 -24 -26 -8 -12 -2 0 -18 -24 -44 -58 -70 -68 -68 -65 -63 -67 -67 -65 -53 -49 -43 -37 -25 -9 -23 -5 1 13 15 19 23 37 29 8 0 -12 -32 -42 -34 -38 -36 -32 -30 -28 -22 -20 -18 -4 4 -4 12 18 27 29 31 43 47 55 57 55 63 55 57 39 35 19 15 15 1 15 3 12 12 6 16 10 28 30 40 46 46 62 64 70 66 86 88 84 64 48 36 31 29 23
2026-08-08 08:48:25,51,-73 -58 -70 -56 -46 -41 -43 -31 -21 -25 -22 -12 -6 2 10 9 11 5 -13 -39 -30 -40 -38 -36 -37 -41 -41 -41 -33 -30 -32 -24 -26 -12 -15 7 1 7 21 20 24 26 32 21 11 5 -23 -19 -26 -32 -34 -22 -32 -21 -27 -23 -11 -3 -8 8 14 16 25 33 41 35 39 52 54 66 66 72 77 55 35 23 12 2 6 6 2 13 1 17 1 15 8 18 24 22 34 35 31 37 49 48 50 62 56 66 71 85 63 53 25 16 -4 0 -8 -7 1 -13 -21 -19 0 -6 -8 4 10 9 11 13 23 21 36 36 26 34 33 21 -3 -7 -25 -38 -44 -28 -34 -46 -33 -37 -47 -45 -31 -32 -26 -20 -10 1 1 7 13 11 22 32 32 46 34 45 41 23 7 -8 -16 -16 -44 -34 -41 -47 -35 -39 -41 -42 -36 -34 -38 -24 -21 -5 -1 -1 0 20 12 8 20 31 25 31 35 43 54 50 38 6 -4 -13 -13 -23 -23 -28 -32 -24 -22 -30 -23 -23 -21 -13 -13 -6 6 0 6 10 13 13 19 23 20 32 36 40 40 43 45 37 17 3 -24 -32 -36 -38 -49 -39 -35 -45 -47 -38 -40 -32 -36 -36 -13 -15 -5 -17 -5 -2 6 2 10 15 13 -7 -17 -43
2026-08-08 08:57:11,63,-35 -45 -31 -33 -41 -31 -39 -44 -42 -26 -20 -24 -22 -18 -14 -14 -13 -23 -27 -33 -37 -29 -41 -27 -25 -28 -24 -22 -20 -8 -14 -12 -6 -7 -5 -3 -5 -7 -11 -19 -23 -33 -34 -24 -36 -32 -28 -26 -38 -32 -33 -29 -27 -19 -17 -19 -9 -11 -5 -4 -6 6 6 6 -6 -20 -6 -8 -13 -17 -11 -17 -23 -15 -17 -15 -10 -2 -8 -8 -12 -4 4 12 8 3 11 9 13 21 13 3 1 3 -2 18 -8 -4 8 6 12 18 15 21 19 23 29 35 39 31 41 38 42 42 44 42 36 30 30 20 35 29 29 29 39 39 33 33 34 30 42 52 30 48 44 54 52 49 53 45 41 47 37 41 33 42 38 30 50 40 38 46 38 46 49 45 51 45 53 45 49 37 33 26 38 28 34 40 42 24 32 37 31 37 39 27 43 35 43 43 48 50 52 40 38 16 24 12 11 5 -3 9 9 7 -1 -7 -9 4 -2 12 -6 -2 14 10 12 16 -13 -15 -27 -17 -25 -37 -29 -37 -40 -28 -22 -36 -34 -32 -24 -32 -34 -29 -23 -17 -15 -21 -31 -37 -61 -45 -54 -56 -50 -56 -58 -48 -56 -52 -53 -57 -43 -43 -43 -41 -33 -39 -35 -54 -42 -58 -52 -58 -64 -70
2026-08-08 09:07:07,66,-6 -8 -8 -8 -10 -10 -9 -8 -8 -7 -10 -6 -5 -1 -2 -1 3 3 7 3 2 -5 -5 -6 -6 -9 -8 -8 -9 -8 -9 -4 -7 -6 -4 -3 -3 1 2 2 4 6 3 3 -1 -4 -4 -2 -4 -4 -2 -5 -5 -3 -2 -3 0 1 4 7 7 8 9 12 11 7 5 1 2 2 3 2 3 -1 0 1 0 5 6 7 9 7 10 13 10 5 4 1 -2 -4 -4 -4 -5 -5 -5 -5 -6 -4 -4 -2 1 0 3 3 4 7 6 4 0 -5 -6 -8 -7 -10 -9 -13 -12 -9 -10 -9 -10 -6 -5 -5 -2 0 2 3 4 5 5 0 -2 -4 -4 -7 -9 -9 -7 -9 -8 -7 -4 -3 -1 -1 0 2 5 5 9 9 11 10 7 4 1 0 2 0 1 2 4 4 6 5 4 6 8 12 10 12 16 14 13 13 10 10 4 4 4 3 4 5 2 2 1 3 5 5 5 8 8 11 15 13 16 17 14 11 4 2 0 0 1 -1 -3 -4 -1 -2 -4 -2 -1 0 -2 2 4 3 6 9 9 13 11 9 6 6 1 -3 -2 -2 -6 -5 -4 -6 -6 -5 -3 -2 -1 0 2 4 5 0 -2 -4 -2 -6 -9 -14 -20 -27 -32 -42 -56 -77
2026-08-08 09:37:20,84,60 61 64 66 64 63 51 36 25 13 3 4 -1 1 -10 -9 -9 -8 -16 -9 -7 -9 -9 -12 -9 -24 -34 -35 -39 -43 -39 -38 -38 -38 -39 -33 -33 -29 -23 -23 -18 -15 -12 -22 -32 -38 -43 -46 -41 -37 -42 -41 -36 -34 -30 -31 -24 -18 -17 -12 -6 -6 -13 -30 -25 -33 -37 -33 -33 -34 -31 -32 -31 -27 -27 -22 -21 -21 -12 -14 -15 -22 -26 -29 -31 -30 -31 -31 -26 -23 -18 -20 -14 -6 5 7 12 23 32 29 25 25 21 22 24 26 26 30 31 37 40 46 48 50 59 56 63 61 48 50 45 49 42 40 47 41 44 41 48 46 52 50 52 58 58 48 43 39 30 34 32 37 29 28 31 37 33 35 41 41 47 41 38 27 21 16 12 12 5 5 -1 1 1 2 8 7 10 12 15 10 6 -3 -13 -16 -16 -19 -22 -17 -20 -18 -15 -19 -11 -9 -5 -1 -2 -7 -14 -21 -20 -25 -26 -22 -25 -21 -18 -20 -16 -14 -11 -8 -4 -1 -7 -17 -22 -23 -22 -30 -25 -27 -19 -18 -19 -21 -14 -5 -12 -2 -3 4 4 -5 -11 -17 -21 -21 -22 -21 -19 -20 -17 -10 -12 -10 -7 -4 0 6 5 11 8 4 -9 -7 -14 -18 -14 -12 -13 -13 -10 -5 -5 -5
2026-08-08 09:48:47,74,-13 -4 -7 -4 -13 -11 -5 0 -3 -1 -2 1 4 6 -4 -20 -30 -35 -41 -47 -45 -47 -49 -46 -52 -48 -43 -53 -51 -50 -44 -38 -36 -30 -31 -40 -40 -43 -45 -50 -43 -41 -39 -33 -25 -26 -22 -21 -23 -17 -17 -13 -12 -6 -8 -7 -19 -22 -29 -33 -35 -39 -44 -42 -46 -41 -34 -38 -28 -26 -15 -17 -11 -5 2 4 -4 -4 -7 -6 3 8 11 19 19 25 27 31 27 38 40 43 47 44 45 46 36 25 28 24 20 18 22 26 18 21 27 24 26 30 39 43 47 58 64 71 63 57 44 40 35 34 31 37 38 38 33 30 33 37 40 47 56 56 63 72 74 71 67 62 58 51 55 50 49 51 43 41 35 31 34 39 38 43 50 42 48 51 51 36 37 30 19 15 20 19 17 18 22 24 28 35 35 39 41 39 40 33 28 16 3 -4 -6 -13 -17 -12 -19 -13 -13 -15 -10 -13 -15 -14 -16 -11 -8 -7 -7 -11 -13 -15 -15 -12 -10 -3 -5 -4 0 2 7 6 5 4 5 13 6 -3 -12 -21 -31 -34 -45 -46 -54 -50 -56 -53 -59 -60 -61 -55 -57 -53 -50 -50 -46 -50 -52 -59 -61 -61 -66 -64 -64 -58 -52 -47 -40 -31 -20 -19 -2 0 8 12
2026-08-08 09:58:25,78,-63 -66 -67 -68 -67 -65 -65 -60 -61 -57 -57 -54 -50 -50 -50 -56 -59 -66 -69 -66 -69 -75 -69 -68 -75 -68 -63 -59 -50 -43 -39 -29 -22 -10 -13 -16 -18 -15 -13 -7 -10 -10 -9 -6 -7 -2 -4 -4 3 3 6 8 10 7 1 -1 -1 -8 -6 -5 0 4 5 10 11 9 16 16 15 25 21 24 27 21 18 18 20 19 15 22 25 30 32 33 42 40 42 49 53 58 60 55 52 45 46 43 36 35 40 34 39 35 37 36 38 41 44 44 44 55 49 45 41 34 32 35 35 36 31 28 33 37 36 33 33 43 43 44 41 32 27 18 19 14 7 4 11 8 13 18 24 30 39 53 64 75 76 77 71 63 64 58 52 52 49 44 44 42 40 48 43 43 39 39 42 37 35 24 17 7 2 -7 -6 -7 -8 -12 -11 -11 -2 -6 -2 6 11 13 13 23 23 7 4 -10 -14 -20 -18 -14 -15 -18 -10 -16 -6 -5 -3 0 -1 -2 3 3 2 3 -7 -7 -13 -11 -15 -22 -24 -22 -18 -23 -23 -16 -17 -24 -19 -29 -25 -24 -25 -35 -44 -51 -56 -59 -60 -57 -61 -59 -67 -61 -63 -55 -58 -60 -56 -52 -48 -41 -35 -35 -36 -40 -45 -40 -38 -38 -44 -35
2026-08-08 10:07:14,64,1 -6 -13 -25 -32 -25 -20 -7 -2 -3 4 5 4 -5 -21 -26 -21 -16 -37 -20 -33 -28 -29 -18 -7 -2 -2 5 4 -7 -6 -13 -22 -29 -18 -25 -22 -24 -27 -14 -11 -2 -7 2 5 -2 1 -6 -5 -17 -12 -21 -18 -15 -10 -17 -24 -17 -8 -9 -3 -8 5 14 21 28 31 34 45 44 43 34 26 21 18 23 10 7 14 13 10 21 16 16 37 32 47 52 51 52 63 64 77 68 66 59 50 43 32 27 36 19 26 37 18 31 27 30 41 48 41 42 59 54 67 62 77 77 72 63 44 35 32 27 26 19 18 11 12 0 15 20 17 14 9 14 17 34 17 18 12 -9 -26 -21 -34 -41 -42 -45 -56 -55 -56 -50 -45 -50 -51 -44 -33 -38 -23 -24 -27 -14 -29 -43 -48 -65 -68 -71 -70 -75 -72 -81 -78 -69 -87 -84 -77 -62 -65 -50 -53 -56 -37 -32 -31 -32 -32 -53 -54 -67 -68 -75 -72 -67 -70 -67 -68 -76 -61 -54 -57 -54 -47 -44 -27 -16 -13 0 1 11 16 23 8 3 2 -5 0 -9 -14 1 5 4 5 14 7 6 25 22 27 26 47 45 52 59 58 65 46 45 32 35 28 21 32 30 29 16 47 34 43 42 49 54 59 62 78 87
2026-08-08 10:19:40,82,-23 -23 -20 -20 -19 -20 -21 -17 -16 -20 -23 -28 -29 -34 -33 -30 -32 -34 -30 -29 -28 -32 -30 -33 -31 -32 -32 -30 -31 -35 -40 -43 -51 -53 -59 -58 -59 -59 -60 -62 -64 -67 -66 -60 -46 -31 -23 -5 11 31 45 46 49 43 36 32 27 28 27 25 21 21 18 19 19 21 21 19 18 14 8 2 -3 -9 -16 -25 -37 -36 -33 -29 -19 -5 8 18 30 37 37 37 35 31 34 35 33 29 26 32 34 36 36 38 37 37 39 40 45 41 43 40 33 32 33 30 28 28 28 30 31 33 32 33 36 36 39 42 43 42 37 33 29 27 24 24 22 26 26 24 23 23 25 25 27 30 34 33 30 25 22 16 15 16 17 16 16 17 17 16 18 20 21 23 25 27 24 18 12 7 1 -4 -4 -6 -4 -1 5 5 8 9 10 8 11 10 7 1 -2 -6 -9 -10 -8 -12 -10 -9 -8 -8 -9 -7 -9 -8 -6 -2 -4 -6 -12 -14 -19 -21 -24 -27 -28 -30 -28 -28 -24 -21 -12 -11 -8 -8 -3 -4 -10 -13 -17 -21 -17 -20 -20 -19 -21 -22 -20 -18 -16 -15 -14 -12 -11 -12 -16 -26 -27 -25 -27 -28 -29 -29 -31 -29 -27 -25 -24 -23 -22 -20 -18 -22 -24 -32
# --- 2026-08-09, the night the absolute-threshold trough rule shipped and
# --- halved 38 of these. Kept because a fixture that only contains the
# --- failure you already fixed cannot catch the one you introduce next.
2026-08-09 00:05:56,30,-7 -11 -18 -15 -9 -1 2 -9 -11 -6 -3 -3 3 3 2 -5 6 6 -7 -6 -11 -10 -7 -6 8 -1 4 3 0 8 6 7 4 -2 -7 -6 -12 -4 -2 1 3 9 18 17 10 7 5 3 -3 -5 -8 -5 -8 -3 0 -8 -8 -7 -7 -9 -5 -14 -7 -8 -1 -6 0 4 9 -2 -6 -11 -15 -24 -30 -25 -23 -17 -7 -4 -10 -13 -10 -6 -2 6 13 6 0 2 0 -3 -1 2 11 11 10 15 15 12 9 18 15 15 22 19 20 17 15 16 20 20 18 12 18 25 27 28 15 15 17 13 17 7 10 3 4 9 11 15 9 9 12 5 10 12 4 -1 -6 -1 1 7 11 7 11 7 1 6 5 6 11 10 7 0 3 7 14 15 11 5 11 11 5 -7 -12 -10 -18 -29 -25 -24 -23 -14 -20 -20 -18 -8 -3 -1 3 -1 -5 -18 -26 -21 -22 -18 -22 -16 -16 -11 -12 -18 -7 -13 -14 -10 -11 -14 -17 -17 -13 -12 -17 -10 -14 -10 -13 -13 -10 -14 -9 -14 -15 -13 -14 -9 -7 -6 -8 -5 -7 -7 -4 -7 -2 -3 -7 -2 -4 1 -2 -4 -8 -13 -8 -6 -4 -9 -10 -3 -7 -3 2 -3 -8 -19 -19 -7 12 27 31 46 58 65 66 61
2026-08-09 00:16:07,52,56 51 63 47 48 50 31 27 31 24 26 37 35 39 32 34 29 33 43 38 44 41 41 43 42 48 47 55 43 40 58 51 61 61 50 46 33 23 23 10 0 -10 -7 -9 -16 -18 -10 -21 -29 -50 -52 -52 -63 -31 -28 -18 -4 7 -5 4 28 30 45 39 50 44 42 43 33 20 32 42 21 -3 -18 -24 -34 -53 -29 -42 -24 -12 -11 -3 3 14 14 21 23 25 30 32 27 21 31 26 16 17 15 3 -18 -22 -47 -53 -41 -52 -58 -57 -63 -59 -54 -62 -75 -51 -51 -62 -54 -45 -49 -27 -30 -36 -48 -53 -49 -48 -54 -74 -71 -89 -94 -100 -102 -95 -69 -64 -52 -64 -59 -65 -72 -72 -82 -79 -83 -82 -78 -62 -59 -61 -62 -58 -60 -43 -55 -48 -50 -44 -45 -37 -47 -36 -30 -25 -29 -37 -34 -30 -23 -21 -33 -14 -8 -3 9 25 26 24 31 9 11 4 -6 -3 7 3 16 10 -11 3 5 -12 -2 -13 1 7 16 16 13 11 17 16 30 32 21 35 42 34 26 45 43 38 40 30 39 43 30 22 8 3 9 8 12 26 27 33 46 52 54 49 45 46 48 40 27 23 14 22 22 23 13 34 30 48 41 49 37 36 42 39 37 37 46 46 43 41
2026-08-09 01:46:06,36,-95 -95 -100 -84 -99 -87 -74 -68 -51 -47 -36 -10 1 -3 -8 -6 -16 -3 -3 8 4 9 23 34 36 23 27 18 18 17 25 13 14 -2 -5 -9 -12 -14 -3 -3 6 10 33 35 27 40 42 43 45 54 50 55 39 14 12 -3 -11 -12 -26 -23 -25 -33 -40 -34 -29 -45 -22 -34 -9 -11 -2 -14 -3 -21 -16 -26 -16 -17 5 -4 12 19 23 34 38 45 49 70 76 76 85 67 74 44 37 37 24 26 9 11 6 -6 -11 -3 -3 -10 -16 -3 -5 -22 -34 -31 -39 -34 -48 -43 -33 -38 -28 -24 -27 -15 -12 6 9 15 22 30 37 37 36 32 25 19 17 24 30 25 19 28 20 23 21 36 38 35 41 54 36 30 39 17 12 16 15 17 14 22 17 23 28 34 33 37 33 58 62 59 45 42 30 35 29 24 18 21 17 8 8 0 -5 -5 -18 -24 -31 -31 -28 -38 -49 -53 -58 -56 -61 -73 -67 -76 -66 -73 -69 -68 -64 -57 -53 -56 -46 -51 -47 -48 -48 -46 -29 -23 -24 -12 -11 -7 -4 0 1 -7 0 -8 -7 -7 -1 -4 -22 -33 -23 -28 -24 -31 -37 -34 -24 -31 -15 -14 -8 -6 7 19 14 26 33 25 22 22 29 29 34 44 49 47 55 54
2026-08-09 01:57:36,30,36 36 33 30 29 27 27 26 27 25 26 24 27 26 25 23 25 27 27 28 25 22 19 18 15 12 11 13 11 9 8 10 6 10 7 8 7 10 6 7 4 2 0 0 -1 -1 -3 -2 -1 -2 -3 0 -1 -1 0 0 0 -1 -2 -2 -6 -7 -6 -6 -5 -5 -10 -10 -11 -11 -10 -10 -11 -9 -10 -9 -11 -11 -14 -16 -15 -18 -14 -14 -12 -11 -11 -13 -14 -15 -18 -17 -18 -16 -14 -14 -14 -18 -19 -24 -26 -27 -27 -29 -28 -29 -31 -29 -33 -32 -32 -33 -30 -31 -27 -29 -26 -25 -27 -25 -26 -27 -30 -26 -29 -30 -31 -33 -33 -33 -35 -32 -32 -31 -31 -32 -29 -31 -33 -39 -37 -43 -42 -43 -48 -45 -49 -48 -48 -50 -52 -50 -51 -52 -49 -43 -42 -40 -38 -40 -34 -35 -33 -30 -26 -22 -15 -12 -5 -3 5 10 16 24 27 34 42 48 49 52 55 61 63 66 69 74 76 76 79 84 84 87 88 88 89 90 90 86 83 73 72 69 65 61 57 57 52 49 45 47 40 39 34 32 31 26 19 17 15 12 10 9 7 6 4 0 1 0 0 -3 -2 -1 -5 -12 -14 -16 -18 -24 -23 -25 -25 -29 -33 -31 -33 -35 -35 -39 -41 -44 -49 -47 -55 -59 -62 -65
2026-08-09 02:16:09,76,94 97 75 67 50 44 47 35 40 36 36 39 45 36 32 33 37 36 52 52 63 61 62 58 43 31 23 18 12 17 13 12 16 12 11 5 20 14 19 23 32 36 30 35 15 -2 -6 1 -15 -15 -10 -16 -21 -15 -12 2 -17 1 -1 2 6 5 -3 -16 -22 -28 -41 -45 -36 -44 -39 -41 -33 -42 -34 -35 -27 -22 -20 -11 -11 -11 -20 -40 -51 -45 -50 -54 -60 -51 -61 -62 -54 -53 -47 -41 -38 -30 -33 -23 -20 -20 -21 -37 -45 -44 -52 -57 -47 -52 -44 -46 -39 -47 -30 -28 -25 -19 -21 -4 -14 -15 -33 -30 -38 -35 -43 -27 -40 -38 -33 -23 -20 -20 -14 -23 -15 4 4 15 5 -16 -18 -20 -27 -23 -24 -16 -19 -25 -25 -18 -12 -7 -5 6 4 6 19 19 0 -6 -3 -7 -8 -8 -6 -7 -9 -14 -2 -15 -13 -5 12 2 19 21 24 24 22 11 5 0 6 -5 -5 -2 0 -2 3 9 -6 2 17 23 19 24 28 29 25 18 10 -1 -3 -5 -4 0 3 -5 6 8 4 19 13 16 20 21 25 35 20 24 13 5 14 10 -3 7 -3 2 2 3 11 10 10 30 23 29 34 40 43 39 37 30 24 21 21 16 8 3 21 17 18 20 31 19
2026-08-09 02:28:36,74,55 59 71 52 40 38 28 10 4 8 17 5 11 17 15 11 11 20 20 32 30 38 42 58 56 43 23 11 9 3 1 -15 8 12 -2 2 6 14 10 2 21 23 27 41 49 33 21 14 2 -8 -10 -8 -2 -2 5 -3 19 1 3 15 25 24 42 36 26 32 10 4 -8 -19 -19 -17 -19 -19 -25 -23 -18 -12 -10 -20 4 0 8 4 21 27 3 -15 -21 -23 -35 -42 -36 -44 -40 -46 -36 -48 -29 -29 -19 -25 -27 -13 -9 3 10 -4 -22 -42 -44 -50 -50 -53 -49 -51 -43 -45 -53 -43 -32 -24 -30 -14 -12 2 0 12 -13 -29 -27 -39 -35 -37 -33 -40 -38 -32 -24 -32 -28 -22 -12 -7 1 3 17 9 -9 -23 -32 -36 -34 -42 -20 -42 -32 -33 -39 -31 -23 -23 -7 -9 5 0 8 8 -8 -18 -34 -40 -39 -37 -31 -25 -39 -27 -23 -15 -16 -18 -6 2 10 20 16 19 5 -13 -25 -23 -23 -37 -26 -24 -20 -20 -22 -18 -6 -6 -9 9 13 19 27 31 21 12 -2 -12 -10 -2 -4 2 1 -11 -1 5 11 15 27 27 38 38 42 38 24 10 -4 -5 -9 3 -1 11 3 3 12 12 10 24 34 32 48 64 91 91 87 81 65 51 55 54 50 52
2026-08-09 02:36:08,75,2 -10 -18 10 -2 14 9 13 17 25 37 41 65 29 9 -11 -23 -27 -24 -12 -28 -12 -28 -12 -12 -4 20 4 20 31 55 35 67 75 39 23 27 7 3 7 11 10 10 34 14 30 30 38 50 62 78 70 77 73 65 45 37 25 25 9 21 37 1 20 24 28 20 44 52 56 48 68 52 52 27 19 15 -25 7 -9 -9 7 11 -5 -25 2 14 26 18 26 26 42 30 6 -26 -46 -46 -63 -51 -51 -71 -55 -59 -55 -63 -55 -35 -55 -44 -40 -4 -8 -16 -48 -60 -68 -104 -76 -64 -68 -69 -65 -57 -81 -53 -53 -45 -17 -45 -21 15 -6 -10 -50 -62 -62 -78 -94 -54 -46 -54 -62 -71 -27 -47 -43 -27 -23 -11 -7 1 21 -3 -20 -52 -52 -52 -52 -24 -60 -48 -48 -28 -32 -17 -5 -13 -13 15 11 31 27 23 -9 -17 -37 -22 -50 -22 -34 -42 -54 -46 -42 -54 -42 -14 -11 1 -15 -3 13 13 -15 -19 -35 -31 -39 -24 -44 -44 -40 -40 -12 -32 8 -4 4 24 39 51 55 67 47 51 27 31 15 15 -1 7 30 14 6 10 34 38 34 54 42 58 42 65 69 69 37 49 25 13 25 9 13 33 8 36 36 24 44 32 64 80 56 84 76 43 19
2026-08-09 02:46:13,74,25 -11 29 45 32 32 32 56 47 59 91 55 63 22 -2 2 -22 -26 -23 -11 -11 -15 -16 4 8 24 48 43 51 55 75 78 66 58 26 22 -7 -3 -7 5 4 4 4 12 20 19 23 31 63 62 58 62 78 42 17 -11 -3 -15 -4 20 0 24 4 11 23 27 15 14 50 30 42 50 69 5 -7 -11 -16 -20 -20 -20 12 -17 -9 -1 -29 7 -2 2 10 2 25 25 13 -15 -47 -44 -60 -52 -52 -61 -45 -41 -25 -41 -22 -22 -26 -22 -27 1 13 21 25 -16 -48 -36 -52 -57 -57 -45 -53 -49 -42 -34 -66 -58 -27 -47 -27 -15 5 -4 -4 -12 -40 -68 -77 -69 -81 -69 -70 -74 -50 -62 -50 -47 -35 -35 -15 0 4 8 -8 -4 -33 -29 -57 -57 -86 -74 -62 -62 -66 -59 -71 -63 -39 -48 -44 -20 -24 -16 -13 -5 -29 -45 -73 -94 -82 -70 -74 -63 -59 -59 -63 -60 -52 -56 -24 -20 -37 -17 -13 -5 -1 14 -10 -26 -34 -35 -39 -31 -7 -39 -24 -16 -4 -20 -9 -5 3 11 51 38 70 66 74 33 41 21 21 21 32 28 24 24 39 35 39 63 59 70 74 66 82 77 93 89 85 53 40 36 44 44 44 43 43 51 43 66 78 82 78 66 93 89
2026-08-09 02:55:59,68,-93 -81 -100 -92 -90 -81 -77 -72 -70 -52 -57 -51 -42 -30 -34 -35 -25 -40 -60 -67 -55 -51 -58 -54 -57 -51 -53 -38 -38 -35 -29 -23 -20 -8 -3 13 15 12 24 7 -13 -21 -22 -18 -21 -21 -17 -8 -2 -7 -7 3 10 20 25 25 42 36 38 35 35 16 10 4 9 15 14 18 18 9 21 18 28 38 35 53 54 52 66 71 73 60 54 30 35 27 26 36 30 9 31 24 30 31 47 47 52 54 69 57 65 70 78 59 43 33 22 20 27 25 35 18 20 25 27 33 32 46 41 45 63 60 66 69 71 56 36 24 21 9 10 8 12 5 13 -2 6 16 15 17 28 18 30 35 39 44 50 36 25 19 4 -8 -18 -17 -7 -14 -10 -14 -17 -7 -12 -12 5 -7 9 24 12 15 29 15 -6 -16 -17 -25 -31 -28 -26 -25 -21 -27 -26 -22 -19 -27 -15 4 6 7 13 13 2 -2 -13 -31 -41 -54 -44 -43 -55 -36 -50 -44 -29 -35 -32 -26 -18 -1 -1 4 20 18 19 5 -10 -4 -20 -17 -27 -18 -8 -20 -13 -23 -12 -14 -6 -3 -11 -4 0 0 7 11 -6 -16 -39 -39 -39 -44 -40 -45 -45 -33 -42 -36 -29 -27 -15 -20 -18 -9 7 13 8 -8
2026-08-09 03:06:38,66,-104 -120 -103 -107 -103 -82 -86 -81 -65 -37 -24 -28 8 -27 -39 -74 -86 -66 -61 -69 -48 -64 -100 -67 -67 -58 -42 -42 -17 -29 -8 4 8 25 33 18 22 -18 -25 -25 -32 -16 8 5 -19 21 2 14 15 15 11 28 28 25 57 49 74 46 43 -1 -17 -24 -16 -3 -15 -3 -18 -6 -21 -5 -1 8 12 5 -3 17 26 38 70 55 47 36 -4 -16 -3 -23 -2 -18 2 -1 -33 -12 8 16 9 5 26 34 50 51 51 84 92 80 65 33 -2 6 6 -5 7 -5 20 16 9 9 1 42 34 35 43 43 56 76 77 93 117 82 62 55 19 35 52 48 49 41 13 26 34 55 55 43 56 68 68 97 109 122 98 86 59 47 36 24 16 49 37 46 6 10 27 23 20 28 52 29 45 54 54 54 83 55 36 8 -12 -23 -15 -26 -18 -38 3 -41 -9 -24 -44 -27 -15 -39 -10 -6 7 19 35 32 20 -3 -59 -63 -70 -54 -33 -73 -41 -48 -52 -63 -47 -35 -34 -34 -42 -1 -5 12 40 32 21 -3 -22 -46 -54 -61 -25 -40 -28 -36 -39 -35 -18 -18 -34 -17 -21 -16 -16 28 13 13 -2 -54 -62 -57 -69 -64 -56 -56 -67 -39 -59 -54 -66 -49 -45 -37 -48 -24
2026-08-09 03:16:47,64,57 46 47 53 62 59 66 61 72 92 85 94 103 102 99 93 80 73 56 65 56 49 41 42 25 32 31 36 34 45 40 51 42 55 63 72 83 80 67 56 42 41 24 27 14 -9 0 -10 -11 -16 -9 -16 -7 -11 -4 1 18 21 30 22 35 36 35 28 15 5 -20 -21 -30 -37 -32 -45 -49 -56 -41 -46 -39 -36 -26 -23 -20 -7 6 19 25 6 9 -2 -17 -36 -37 -45 -40 -53 -50 -57 -62 -70 -55 -68 -51 -36 -37 -29 -22 -19 -10 -1 2 -8 -13 -34 -47 -52 -73 -70 -90 -87 -88 -93 -100 -91 -95 -94 -81 -80 -69 -60 -46 -55 -34 -25 -22 -21 -33 -58 -65 -78 -85 -88 -91 -99 -110 -109 -110 -103 -96 -88 -79 -66 -69 -58 -49 -47 -32 -25 -36 -33 -36 -50 -59 -74 -63 -76 -69 -66 -82 -81 -84 -63 -72 -63 -47 -42 -27 -20 -5 6 0 -1 -10 -1 -18 -29 -28 -34 -35 -30 -35 -26 -33 -21 -14 -9 2 9 14 24 39 60 71 56 45 47 42 21 16 7 -8 -3 1 -6 -5 -4 -3 8 18 17 22 41 50 45 61 76 73 76 67 74 62 45 38 41 32 31 30 32 33 36 37 42 55 67 66 77 90 101 118 110 115 104 117 102 93 93 100 81
2026-08-09 03:27:12,64,64 55 63 54 48 43 45 48 58 65 65 80 86 86 99 91 80 66 51 39 20 22 11 11 6 4 -1 7 -4 -4 1 15 4 10 17 33 30 42 37 35 22 20 1 -9 -8 -12 -11 -3 -2 -12 -11 -1 0 -14 8 5 19 22 12 31 37 30 28 21 5 -10 -14 -7 -9 -8 -12 -9 -13 -16 -2 -7 1 8 2 11 31 32 34 19 3 -10 -28 -41 -45 -44 -46 -49 -55 -48 -66 -51 -55 -60 -54 -50 -41 -37 -32 -18 -13 -1 -10 -14 -25 -43 -62 -70 -81 -81 -80 -78 -71 -85 -86 -78 -81 -71 -68 -66 -53 -41 -38 -40 -29 -23 -14 -26 -25 -31 -42 -60 -65 -69 -74 -70 -77 -77 -83 -78 -78 -71 -67 -60 -54 -41 -29 -24 -16 -5 -5 2 -4 -5 -25 -24 -28 -37 -29 -26 -30 -29 -35 -26 -16 -23 -15 -10 -4 7 17 6 14 25 35 18 18 3 -5 -14 -14 -7 5 -1 -8 -4 3 7 14 20 23 25 36 40 53 53 50 58 49 47 28 24 11 11 10 10 3 9 -4 6 -1 7 6 14 31 27 38 42 49 45 52 48 51 49 30 16 18 9 11 4 12 17 11 -4 10 11 25 24 24 31 39 38 40 47 61 62 60 55 43 28 26 17
2026-08-09 03:37:09,67,23 27 28 31 35 41 44 52 54 53 61 71 75 72 53 35 22 12 12 10 11 18 15 13 17 16 17 23 25 36 38 41 47 51 56 59 47 26 10 6 -1 -1 9 0 5 8 3 2 6 5 14 16 23 24 26 31 44 32 15 -9 -25 -27 -27 -29 -30 -28 -28 -30 -32 -26 -25 -20 -17 -10 -7 -2 1 11 16 13 -6 -25 -39 -44 -46 -47 -48 -43 -47 -49 -42 -45 -42 -33 -31 -29 -23 -11 -14 -4 -1 3 -16 -27 -44 -47 -60 -58 -52 -54 -49 -49 -46 -44 -40 -41 -33 -25 -24 -14 -12 -10 1 -4 -15 -34 -39 -45 -49 -54 -49 -46 -41 -45 -41 -35 -36 -35 -25 -19 -17 -7 -9 3 6 -5 -22 -31 -41 -50 -47 -39 -42 -39 -39 -34 -29 -27 -24 -18 -11 -4 -4 2 12 13 18 23 18 -2 -14 -24 -27 -33 -28 -33 -29 -27 -29 -23 -19 -11 -17 -8 -3 5 11 15 18 28 38 41 37 18 1 -7 -14 -17 -15 -17 -14 -15 -10 -10 -8 -4 3 4 13 15 24 31 33 42 50 57 50 32 19 10 2 4 3 9 10 10 10 14 14 19 21 32 29 38 47 48 57 63 54 39 26 20 11 7 11 13 20 20 18 19 22 24 29 40 41 46
2026-08-09 03:48:24,66,-6 -8 8 12 21 17 23 25 35 37 47 60 60 66 76 90 78 63 41 7 1 -1 15 13 32 20 20 22 30 34 34 31 45 47 55 69 65 67 72 62 28 2 -18 -12 -26 -19 -3 5 -7 3 3 5 6 16 26 32 36 38 44 35 49 49 25 1 -19 -38 -48 -48 -34 -36 -32 -24 -29 -29 -23 -17 -1 5 5 4 10 20 20 36 42 38 9 -19 -41 -29 -41 -41 -33 -30 -20 -8 -14 -12 -4 0 9 9 21 21 25 23 38 4 -20 -46 -68 -80 -66 -55 -49 -51 -53 -41 -45 -45 -32 -34 -40 -20 -14 -10 -2 -1 -9 -7 -37 -61 -93 -97 -108 -106 -88 -76 -84 -88 -86 -75 -77 -61 -51 -53 -33 -40 -28 -32 -18 -16 -16 -18 -49 -75 -87 -99 -91 -99 -87 -74 -68 -76 -70 -68 -60 -52 -41 -31 -27 -29 -15 -11 7 8 6 -8 -36 -50 -54 -52 -45 -37 -17 -29 -17 -13 -9 -8 14 4 16 26 28 39 45 45 47 25 -5 -13 -22 -24 -12 -4 2 0 -2 -1 1 21 23 33 41 39 60 68 66 74 76 78 78 59 29 13 1 3 7 23 14 28 22 28 36 38 35 45 59 65 63 69 63 86 84 94 90 66 40 14 17 23 17 23 39 39
2026-08-09 03:55:58,62,-73 -69 -67 -62 -52 -58 -46 -32 -32 -34 -58 -78 -85 -99 -83 -77 -61 -59 -59 -59 -62 -50 -54 -46 -30 -20 -18 -18 -1 9 15 15 -3 -19 -37 -35 -39 -30 -24 -16 -24 -8 -22 -16 -10 7 3 1 17 15 35 29 41 51 50 20 6 -14 -20 -14 -18 -16 -13 -9 -7 -3 -3 5 9 5 25 26 36 42 46 56 54 56 60 57 33 9 -1 -11 1 1 -3 13 8 14 12 8 10 14 26 30 37 37 45 49 53 61 75 75 62 26 6 2 -2 -6 8 12 16 19 23 27 25 41 33 39 45 64 66 72 82 94 84 76 64 38 23 25 33 31 33 49 39 43 48 54 54 58 60 50 54 62 60 81 85 83 69 53 25 -3 -25 -18 -8 -14 -16 -16 -20 -14 -14 -7 -5 7 15 9 13 25 31 17 26 32 34 32 6 -32 -40 -50 -47 -45 -31 -33 -37 -49 -49 -33 -35 -28 -28 -28 -22 -16 -8 4 -2 5 7 25 13 15 -27 -49 -67 -67 -68 -56 -50 -36 -44 -44 -32 -30 -25 -15 -17 -3 -7 9 15 21 24 30 12 -6 -34 -46 -44 -36 -32 -25 -21 -19 -25 -17 -19 -9 -13 -8 -2 -2 2 8 22 16 16 6 -35 -57 -67 -71 -77 -61 -63 -57
2026-08-09 04:06:14,70,31 8 33 42 59 19 36 45 30 63 32 25 33 34 27 28 -3 6 7 39 -16 9 10 11 36 -12 29 6 -9 8 -23 18 58 19 52 -11 6 31 23 40 1 10 19 -44 -36 -3 22 -1 0 -7 -6 -22 11 20 -11 -42 -33 40 -8 9 10 -13 -52 -75 5 -50 -33 -64 1 -30 -37 -13 -44 -35 -42 -9 0 -31 -39 -22 35 28 21 -10 -18 15 -32 9 -6 -29 -37 -20 -51 -26 -1 -16 33 -23 -14 -29 -4 -11 -2 -2 -9 -48 -55 -78 -77 -28 -4 -35 -26 -41 -8 -47 -46 -46 -45 -28 -27 -26 -41 -1 -8 -7 26 -21 -28 -11 -3 -10 -57 -8 -15 -38 -13 -37 -12 -3 -18 -33 24 40 41 50 19 4 5 -2 6 -33 8 -47 -22 3 -37 -4 -11 6 23 32 48 33 26 3 -4 13 22 38 31 16 9 10 19 4 12 5 22 23 16 25 -15 10 19 12 21 -2 47 23 56 -15 26 -29 12 37 -11 14 23 8 -23 34 10 35 52 13 14 15 48 40 9 18 3 -20 5 21 -26 -9 -8 9 -14 3 -21 -20 5 -18 -17 8 8 1 -14 11 4 13 6 14 -17 -24 -23 -22 -29 -61 20 -19 -2 -1 -8 25 9 42 19 -12 45 -10 22 -9
2026-08-09 04:16:12,129,36 36 34 34 35 33 33 32 32 33 32 32 31 29 30 31 29 31 29 30 28 28 28 26 25 23 23 21 21 21 21 20 18 19 19 17 19 18 16 16 16 16 15 15 15 14 13 12 10 8 7 7 7 6 6 5 3 5 4 3 3 4 2 3 2 2 1 2 1 0 -2 -3 -4 -5 -7 -6 -7 -7 -7 -8 -8 -9 -9 -10 -10 -9 -9 -9 -10 -10 -9 -10 -10 -11 -11 -13 -15 -17 -18 -19 -18 -17 -19 -20 -21 -21 -22 -25 -29 -28 -31 -32 -29 -30 -23 -25 -29 -27 -26 -28 -24 -27 -26 -26 -28 -31 -31 -31 -36 -42 -48 -56 -64 -67 -66 -58 -53 -49 -46 -46 -52 -62 -72 -80 -78 -75 -63 -54 -41 -47 -53 -50 -62 -73 -81 -84 -65 -58 -49 -32 -25 -21 -11 -11 -11 -21 -34 -39 -27 -14 -9 -6 0 12 13 12 1 -7 -16 -7 -3 4 4 15 24 26 29 30 29 29 33 36 41 44 46 45 45 42 43 39 37 36 34 33 32 29 26 25 21 19 18 12 10 11 10 10 10 10 9 8 7 3 -1 -3 -3 -2 -2 -3 5 5 9 9 4 -4 -15 -18 -12 -3 12 28 37 43 45 45 45 48 48 47 45 42 43 44 41 37 33 28
2026-08-09 04:26:21,75,-69 -37 -53 -37 -49 -29 -52 -28 -32 -20 -40 -20 -28 -32 -28 -20 -32 -28 -20 -24 -12 -28 -32 -36 -28 -12 -11 -15 -3 -3 1 5 5 9 29 17 -27 -23 -19 -3 -19 -23 -27 -27 -15 -14 -26 -10 -14 -10 2 -6 -6 14 14 -2 2 -10 -6 -22 -14 -30 -26 -22 -41 -45 -1 -29 -13 -13 -5 -9 19 7 15 7 11 -9 -29 -1 -21 -1 -5 -17 -24 -24 0 4 0 28 20 0 16 16 36 16 8 -16 -16 -12 0 -20 4 -7 -11 17 -3 21 13 13 25 17 9 49 17 21 25 41 13 17 17 13 38 46 38 22 38 22 42 34 58 58 50 58 54 62 74 34 62 38 34 42 39 43 43 23 35 55 55 51 67 51 67 71 87 47 43 59 51 39 27 24 32 36 32 16 16 12 24 16 24 28 56 32 32 44 28 20 20 16 13 13 -11 -7 9 17 13 21 17 17 9 21 33 29 33 17 5 -3 -23 -14 -10 -26 -6 -6 -14 -26 2 -14 -14 6 -10 -2 14 22 -2 -2 -6 -22 -5 -29 -13 -21 -13 -25 -25 -29 -25 -17 -25 -25 7 -9 3 -17 -17 -49 -53 -65 -56 -56 -64 -64 -68 -56 -80 -72 -76 -68 -60 -52 -48 -36 -36 -68 -88 -80
2026-08-09 04:36:41,76,43 55 35 35 15 3 19 3 31 35 35 15 31 39 11 23 35 43 55 47 59 47 47 39 35 23 23 31 23 27 19 28 20 20 28 36 44 36 44 56 76 72 24 28 16 12 -4 -4 -4 -4 20 4 8 -12 0 4 12 16 24 28 20 28 4 -28 -20 -32 -8 -32 -28 -36 -36 -24 -12 -28 -28 -12 0 0 -19 -4 13 17 1 -23 -47 -51 -43 -59 -39 -59 -75 -43 -51 -47 -39 -19 -35 -15 -7 -7 -11 9 -15 5 -35 -55 -39 -35 -15 -27 -47 -31 -31 -23 -23 -55 -27 -3 -7 1 13 5 21 -15 -39 -35 -30 -50 -50 -30 -46 -34 -34 -14 -18 -30 -6 -22 -6 -14 6 14 -14 -18 -46 -54 -34 -50 -38 -22 -38 -62 -46 -42 -46 -34 -38 -42 -2 -26 -18 -14 -38 -42 -54 -58 -74 -54 -42 -46 -54 -54 -58 -38 -22 -21 -41 -9 -25 -13 11 -1 -1 -9 -41 -33 -45 -45 -29 -21 -9 -25 -9 -9 -13 -13 -9 31 15 31 39 51 19 -1 -5 7 7 27 31 7 15 7 19 27 39 47 39 31 55 59 51 43 32 24 16 24 28 20 12 -4 12 24 24 36 52 60 40 52 60 64 64 48 28 32 36 0 16 12 40 32 40 32 32 32 44 44
2026-08-09 04:46:03,76,-14 -22 -22 -5 -25 -33 -36 -20 -32 -11 -19 -11 -10 -6 3 7 15 24 -16 -16 -15 -19 -23 2 -14 -22 -21 -5 -5 -24 0 8 13 -19 13 22 22 -10 -17 -33 -28 -36 -40 -11 -35 -23 -18 -26 -38 -29 -17 -17 -12 -4 8 -7 1 -27 -26 -34 -29 -53 -45 -20 -40 -56 -39 -35 -43 -18 -34 -22 -17 -13 15 0 8 -12 -47 -39 -39 -26 -2 -18 -5 -25 -20 -12 -8 -15 -7 -11 26 14 22 27 19 -1 12 -4 -8 13 1 21 2 10 22 35 19 32 28 40 45 41 73 58 34 30 19 7 19 20 20 36 37 25 25 34 42 42 27 43 52 76 52 65 45 37 26 22 34 27 19 35 20 40 28 45 45 29 54 54 54 59 71 40 24 32 37 13 21 22 30 30 15 7 11 24 28 44 33 37 33 46 54 10 27 7 3 12 16 17 5 17 6 22 42 19 3 19 16 44 44 33 21 9 6 -6 -14 -1 -1 -4 -12 -24 -15 -15 -3 -10 6 6 -5 19 -5 24 0 -28 -39 -31 -35 -50 -30 -30 -41 -21 -29 -40 -28 -27 -7 -11 -22 -10 -6 -29 -33 -25 -32 -56 -60 -55 -55 -59 -26 -62 -42 -29 -53 -57 -40 -24 -31 -43 -27 -42 -54 -74
2026-08-09 04:56:17,72,-65 -65 -73 -73 -26 -34 -50 -90 -98 -42 -74 -50 -18 -42 -34 -58 -18 21 -19 45 -3 29 -27 -67 -43 -59 -19 -43 -75 -28 -44 -52 -52 -60 -52 -20 -4 -52 -12 52 4 -13 3 27 -53 -61 -37 -21 -21 -29 -45 -45 -53 -22 -22 -46 -14 -38 58 2 18 -6 26 42 33 25 -39 -31 -15 -23 -39 -39 17 -15 -23 -39 -32 0 -8 0 0 48 40 56 48 24 32 24 31 47 7 63 47 31 31 15 31 23 47 71 78 70 78 94 78 102 46 38 54 -2 54 62 21 53 61 53 37 13 21 21 37 45 61 29 124 84 84 60 68 36 12 44 36 28 4 28 36 19 51 27 35 27 43 67 67 83 67 83 35 10 -30 18 18 -14 -6 -6 10 26 -30 -14 -14 25 41 41 33 41 41 121 65 33 25 9 -7 -16 -16 -24 -16 16 -24 -24 0 32 -16 16 8 47 23 63 55 79 -1 -33 -1 23 -25 -25 7 -34 6 -34 -18 -26 -34 -18 14 30 22 38 -18 13 21 -35 -3 -11 -75 -19 -27 -19 -43 -19 -19 -36 -12 20 -60 -12 4 12 -4 -28 -4 -44 -52 -61 -85 -37 -61 -37 -45 -85 -77 -53 -45 -93 -85 -54 -14 2 -14 -6 -14 -78 -86 -102 -78 -62
2026-08-09 05:06:41,75,-11 -19 -19 -23 -47 2 2 -22 -2 18 22 10 11 -21 -25 -33 -41 -17 -40 -20 -32 -40 -20 -28 -39 -23 -23 -19 -23 -11 -6 -10 -10 -30 -34 -50 -38 -25 -45 -17 -41 -29 -17 -20 -20 0 -12 4 4 12 5 1 -19 -23 -19 -23 -14 -26 6 -10 -14 -6 -25 -1 -9 11 -9 19 40 36 32 8 -16 0 -4 1 -11 9 1 -15 -7 -14 -6 10 2 2 14 10 15 19 19 -9 11 -9 0 -12 8 -12 8 -8 -3 17 1 5 9 5 18 38 42 26 54 26 14 3 19 11 15 11 15 12 -4 4 16 52 16 24 33 29 41 37 53 45 34 30 22 6 18 18 27 27 11 15 7 23 20 32 28 12 48 48 44 37 37 25 5 37 29 26 18 10 30 10 14 35 43 31 55 67 43 59 52 64 8 4 20 -12 9 13 -7 5 17 21 22 10 30 10 34 14 42 19 31 23 3 -1 3 0 -20 -16 -24 -4 -16 -11 -3 -27 1 -15 -15 1 -6 2 -2 -2 -14 -26 -37 -21 -33 -9 -29 -41 -12 -12 -28 -28 -8 -4 -28 -7 -11 5 13 -15 -35 -26 -30 -46 -42 -38 -42 -37 -41 -61 -45 -53 -41 -28 -44 -32 -20 -8 -12 -32 -31 -35 -43 -43
2026-08-09 05:16:05,75,-36 -39 -34 -41 -38 -34 -33 -35 -28 -27 -28 -26 -19 -12 -10 -6 -5 6 4 0 0 -7 -3 -6 0 0 -1 3 7 4 8 13 14 16 17 20 25 24 23 22 19 13 9 14 16 16 16 20 19 20 22 21 22 23 30 32 35 36 32 24 29 21 26 23 27 20 27 24 21 23 31 27 33 33 33 36 41 45 43 42 30 39 31 26 23 19 16 19 21 19 22 24 28 23 28 26 31 33 37 29 29 28 25 17 15 14 15 12 12 3 5 6 7 11 11 6 5 10 13 9 10 3 -5 -3 -8 -7 -6 -9 -11 -12 -16 -13 -15 -15 -5 -9 -4 -8 -17 -20 -18 -28 -37 -34 -40 -35 -35 -39 -42 -43 -42 -41 -37 -45 -48 -42 -42 -43 -42 -50 -57 -62 -66 -66 -72 -64 -73 -68 -76 -68 -66 -62 -60 -60 -64 -60 -59 -66 -65 -72 -79 -85 -82 -80 -84 -78 -77 -78 -79 -81 -76 -74 -74 -59 -27 -9 17 33 24 15 7 0 -3 -8 -6 -18 -18 -17 -10 -10 -10 -9 -9 -8 -2 4 2 -5 -13 -14 -7 -9 3 13 17 20 23 29 37 39 45 47 54 56 53 51 47 49 49 48 50 55 56 60 66 71 74 71 76 79 76 78 70 74 72 62
2026-08-09 05:26:32,64,18 10 34 18 2 33 17 25 29 33 53 48 56 52 80 80 88 99 91 111 99 91 79 46 46 46 46 42 13 37 25 37 49 33 48 48 44 52 52 80 83 83 79 99 75 82 70 26 18 22 14 29 5 13 -7 -19 9 -12 -4 -4 28 8 16 27 39 43 47 63 46 6 -22 -46 -62 -42 -59 -55 -39 -67 -51 -35 -56 -56 -44 -28 -12 -24 -17 19 -17 3 -1 18 -6 -34 -66 -74 -78 -71 -63 -55 -55 -71 -87 -96 -72 -68 -80 -76 -48 -41 -13 -29 -33 -5 18 -18 -34 -38 -66 -66 -87 -87 -63 -83 -63 -55 -100 -80 -88 -72 -76 -60 -53 -37 -21 -9 -5 -2 -18 -26 -54 -66 -86 -87 -103 -83 -95 -71 -75 -80 -76 -80 -80 -52 -61 -53 -17 -9 -13 -5 -10 -30 -54 -58 -90 -82 -91 -87 -103 -83 -87 -79 -68 -68 -68 -40 -48 -53 -29 -21 -1 -9 -5 10 22 6 -10 -42 -34 -43 -27 -15 -39 -39 -31 -20 -28 -24 -20 -24 -4 3 19 11 35 43 50 54 86 54 34 10 -7 21 -3 5 25 21 8 8 12 20 20 27 51 51 63 67 79 78 106 94 114 98 86 77 45 49 53 41 69 36 68 48 56 68 59 59 83 83 87 91 102 110 126 126
2026-08-09 05:37:45,64,-83 -59 -47 -63 -71 -43 -67 -43 -27 -51 -43 -19 -27 -11 1 -15 -7 1 21 -11 -15 -47 -43 -31 -51 -43 -31 -27 -55 -19 -47 -23 -43 -31 -31 -15 1 1 9 -3 17 17 9 -11 -19 -27 -27 -43 -35 -19 -11 -11 -3 -19 -23 -15 -19 13 5 13 17 12 24 16 24 16 12 -16 -12 -20 -16 -8 -28 -20 -8 -12 -32 -8 -8 0 0 4 0 28 16 32 40 48 44 40 24 12 0 8 20 8 20 24 24 20 8 24 32 20 44 32 60 56 52 68 68 72 84 56 36 24 24 36 32 28 40 28 28 36 48 16 32 60 68 56 56 32 68 76 80 52 55 31 23 7 11 15 11 35 15 15 3 3 19 27 27 23 35 55 39 59 47 59 55 23 15 -13 -21 19 -9 11 7 -17 -5 -13 -5 -13 -13 11 -9 11 23 31 27 35 51 39 43 39 27 3 -29 -17 -17 -33 -33 -25 -29 -17 -17 -17 -9 -13 -37 -17 -9 7 7 3 -1 27 38 -17 -18 -30 -26 -46 -54 -34 -50 -50 -42 -54 -46 -38 -42 -26 -14 -34 -18 -22 -18 -6 10 -6 -14 -26 -30 -46 -58 -82 -58 -42 -54 -50 -74 -46 -46 -46 -22 -38 -38 -6 2 2 -10 6 22 22 6 -6
2026-08-09 05:48:38,62,80 83 47 19 22 38 33 17 9 -12 0 8 3 -9 19 22 30 38 29 45 53 64 68 68 83 63 63 -6 -2 -22 -35 -27 -23 -16 -32 -12 -17 -17 -26 -6 -14 -7 13 -3 24 24 36 55 51 39 6 -10 -22 -43 -63 -51 -60 -56 -44 -57 -37 -53 -38 -26 -62 -19 -15 13 4 4 23 27 31 38 66 46 -15 -31 -47 -52 -48 -56 -49 -65 -61 -50 -34 -46 -59 -55 -43 -20 -16 4 15 27 39 58 54 62 45 41 -3 -20 -16 -33 -33 -21 -26 -34 -34 -15 -27 -27 -20 -16 0 -9 15 -1 30 50 62 49 49 25 16 -32 -44 -5 -37 -17 -18 -10 -18 -3 -35 -7 -12 -12 3 15 19 26 46 26 57 57 21 -12 -40 -44 -69 -53 -21 -42 -38 -54 -51 -63 -51 -52 -48 -20 -25 -9 -1 26 34 18 53 41 8 -4 -28 -45 -57 -57 -26 -38 -54 -43 -59 -35 -48 -40 -24 -17 -9 3 10 18 30 17 53 45 44 36 28 -21 -33 -34 -38 -34 -27 -39 -27 -44 -20 -24 -13 -9 -5 -2 10 14 41 41 65 64 80 56 39 15 3 -2 -18 2 -3 -3 -7 -12 0 -4 -1 23 22 10 14 45 53 69 72 72 52 43 19 11 18 -6 -22 1 17 9 12 8
2026-08-09 05:57:50,58,68 50 39 26 32 29 19 28 16 19 15 20 10 23 12 18 33 23 44 44 51 51 60 60 81 72 76 63 43 18 22 13 13 18 18 15 13 4 3 9 6 18 13 19 24 20 41 35 40 39 51 50 48 19 17 4 -6 -3 -15 -2 -11 -11 -6 -22 -13 -11 -14 -12 -3 7 14 8 19 18 38 29 23 12 -10 -19 -31 -46 -34 -29 -26 -34 -39 -49 -44 -26 -37 -31 -26 -22 -23 -22 -12 -5 1 0 4 13 1 -20 -48 -57 -64 -64 -55 -63 -60 -58 -59 -69 -68 -64 -65 -53 -56 -37 -49 -32 -26 -33 -15 -8 -14 -1 -7 -26 -51 -55 -70 -70 -65 -63 -58 -54 -59 -71 -66 -61 -67 -58 -50 -37 -33 -34 -26 -19 -7 -10 -6 1 -20 -32 -51 -57 -56 -56 -59 -53 -52 -62 -55 -50 -48 -43 -39 -26 -26 -15 -11 -4 2 3 26 22 27 19 14 -12 -11 -9 -24 -22 -23 -23 -20 -15 -25 -12 -4 -7 7 12 16 15 31 42 39 41 52 52 71 55 50 22 11 13 14 8 11 16 16 15 1 10 2 21 17 22 24 39 36 50 45 61 66 70 51 31 18 6 1 8 10 11 17 8 8 3 1 16 26 25 24 32 31 43 50 62 61 71 82 68
2026-08-09 06:05:57,60,72 76 84 86 87 67 49 31 19 15 21 16 12 14 22 14 12 24 17 27 31 29 39 29 41 36 58 42 56 56 70 56 41 27 19 -3 -1 11 11 0 12 -2 0 -14 0 2 11 9 3 13 17 15 35 36 46 34 38 16 4 -6 -25 -21 -23 -23 -17 -17 -13 -18 -20 -18 -20 -16 -4 -6 3 1 9 7 23 21 33 30 10 -6 -6 -16 -24 -28 -20 -29 -31 -27 -21 -33 -31 -29 -32 -18 -30 -22 -24 -10 -8 -9 1 7 9 3 -3 -21 -40 -56 -52 -54 -58 -48 -50 -55 -53 -53 -61 -51 -55 -45 -36 -48 -24 -18 -16 -14 -4 -21 -21 -23 -61 -65 -69 -73 -78 -70 -72 -70 -62 -74 -74 -67 -55 -61 -57 -45 -37 -39 -30 -24 -12 -2 -14 -20 -46 -53 -67 -61 -67 -57 -65 -53 -46 -56 -52 -54 -40 -32 -26 -27 -23 -17 -11 3 -1 15 24 28 12 0 -18 -18 -28 -27 -19 -25 -23 -25 -19 -13 -10 -16 -4 -2 2 16 16 29 33 35 35 47 47 31 20 2 -6 -2 -2 -2 4 -2 -1 3 7 11 23 23 28 32 44 38 50 56 60 58 71 67 67 43 33 29 13 26 34 30 34 30 20 38 31 33 49 37 51 49 61 60 76 70 84 90
2026-08-09 06:16:58,62,-91 -87 -69 -77 -63 -59 -47 -41 -43 -22 -16 -26 -54 -76 -74 -78 -80 -70 -79 -71 -77 -69 -71 -69 -57 -49 -43 -34 -36 -22 -12 -6 6 18 10 8 -9 -33 -41 -41 -45 -39 -37 -33 -29 -24 -22 -24 -22 -14 -10 6 12 12 35 33 35 51 57 47 23 11 3 -4 -2 -4 2 2 8 2 8 16 19 19 19 25 33 43 47 59 59 74 72 66 32 26 4 14 6 16 23 13 3 11 7 11 15 21 29 36 44 40 50 60 64 74 86 88 69 43 27 21 17 15 13 9 13 22 22 14 24 24 38 30 42 50 51 65 67 71 85 81 81 63 43 26 36 30 24 24 28 34 26 16 29 41 41 41 45 47 45 61 67 60 84 82 58 46 22 8 4 2 9 1 3 -7 -9 -7 -3 1 -1 -4 2 14 14 26 34 32 44 34 45 47 13 -3 -23 -33 -31 -29 -31 -28 -40 -40 -28 -34 -30 -30 -24 -22 -5 -15 -11 -9 -9 5 13 13 21 8 -14 -40 -42 -36 -54 -46 -48 -48 -51 -45 -51 -41 -39 -45 -35 -27 -17 -14 -2 0 4 18 12 -10 -32 -36 -51 -59 -63 -65 -51 -61 -57 -53 -55 -48 -52 -60 -42 -42 -34 -24 -20 -12 -9 -1 -11 -21
2026-08-09 06:28:07,66,15 25 30 36 36 39 51 47 44 26 12 1 11 7 2 8 11 9 7 10 8 16 27 31 35 40 42 43 57 69 60 56 22 19 1 -3 8 4 4 -11 1 -4 -10 6 11 3 13 22 26 24 35 37 50 52 40 7 7 -5 -10 -10 -10 -3 -9 -8 -10 -10 -9 -3 11 4 18 18 35 29 35 40 48 35 9 -5 -22 -20 -24 -17 -21 -25 -22 -24 -29 -19 -15 -18 -14 -10 3 -5 15 18 16 24 17 -7 -38 -38 -32 -33 -39 -41 -38 -44 -40 -27 -31 -24 -22 -12 -3 -9 -11 4 6 14 7 -23 -37 -48 -58 -51 -51 -55 -50 -50 -52 -65 -53 -55 -48 -32 -31 -23 -23 -22 -12 -4 -5 -13 -35 -64 -62 -68 -73 -67 -58 -56 -66 -69 -63 -57 -56 -52 -52 -41 -31 -28 -18 -8 5 -1 -11 -36 -50 -50 -45 -57 -41 -38 -46 -41 -43 -49 -40 -20 -24 -15 -7 -7 6 4 23 15 -7 -22 -40 -32 -39 -33 -17 -26 -22 -24 -11 -19 -10 -6 0 17 27 21 38 34 46 55 41 24 6 -10 -5 1 -5 8 6 -4 5 9 11 16 26 35 33 41 52 50 62 75 75 75 38 32 23 21 23 30 34 30 31 39 45 40 44 56 63 69 76 82 86 95
2026-08-09 06:35:53,108,85 85 85 -4 -5 -5 -5 -5 -5 -5 -4 -4 -4 -4 -4 -4 -4 -4 -4 -4 -4 -4 -4 -4 -4 -4 -4 -4 -4 -4 -4 -4 -4 -4 -4 -4 -4 -4 -4 -4 -4 -4 -3 -3 -3 -3 -3 -3 -4 -4 -3 -4 -4 -3 -3 -3 -3 -3 -3 -3 -3 -3 -3 -3 -3 -3 -3 -3 -3 -3 -3 -3 -3 -3 -3 -3 -3 -3 -3 -3 -3 -3 -3 -3 -2 -2 -2 -2 -2 -2 -2 -2 -2 -3 -3 -2 -3 -2 -2 -2 -2 -2 -2 -2 -2 -2 -2 -2 -2 -2 -2 -2 -2 -2 -2 -2 -2 -2 -2 -2 -2 -2 -2 -2 -2 -2 -2 -2 -1 -1 -1 -2 -2 -2 -2 -2 -1 -1 -1 -1 -1 -1 -1 -1 -1 -1 -1 -1 -1 -1 -1 -1 -1 -1 -1 -1 -1 -1 -1 -1 -1 -1 -1 -1 -1 -1 -1 -1 0 0 0 0 0 -1 -1 -1 -1 0 0 0 0 0 0 0 0 0 0 0 0 0 0 0 0 0 0 0 0 0 0 0 0 0 0 0 0 0 0 0 0 1 1 1 1 1 1 1 1 0 1 1 1 1 1 1 1 1 1 1 1 1 1 1 1 1 1 1 1 1 1 1 1 1 1 1 1 1 2 1 2 2 2 2 2 2 2 2
2026-08-09 06:48:38,68,31 37 33 45 56 50 52 42 33 25 9 19 16 26 24 19 17 19 23 18 28 18 16 17 31 31 33 37 40 32 22 -3 -17 -25 -17 -20 -18 -12 -18 -13 -23 -23 -29 -10 -24 -26 -14 -15 -15 -17 -5 -12 -16 -30 -26 -33 -37 -27 -15 -24 -16 -16 -8 -5 -9 -9 -3 8 16 12 22 31 29 33 9 -2 -2 -2 2 -3 7 9 5 0 -6 -2 -6 9 3 9 15 22 28 26 40 39 29 17 3 -2 8 -6 4 -1 7 -1 -1 0 2 6 2 -1 7 11 21 24 20 38 38 37 29 21 3 0 -10 -6 -8 -3 -15 -15 -15 -22 -16 -16 -12 -11 -11 -7 -17 -8 -14 -18 -12 -39 -35 -49 -51 -60 -62 -58 -70 -65 -63 -73 -71 -64 -68 -74 -66 -63 -53 -55 -47 -66 -70 -84 -90 -75 -79 -53 -61 -58 -60 -56 -56 -45 -33 -31 -29 -10 -20 -4 -6 -5 -15 -23 -29 -36 -24 -24 -32 -13 -17 -11 -3 -2 -6 -4 12 5 17 17 23 28 22 38 26 27 31 7 7 18 4 6 18 25 15 23 21 18 22 28 26 37 45 31 45 40 46 60 54 61 43 27 31 24 28 26 40 33 29 29 21 32 24 30 26 35 31 25 25 36 28 28 24 11
2026-08-09 06:56:29,75,8 11 12 18 24 22 26 33 40 32 20 13 0 0 -1 0 3 2 -1 -1 -4 6 4 7 12 15 22 26 24 31 32 15 9 3 3 0 5 3 3 2 2 1 5 8 14 13 22 26 29 34 38 31 16 7 3 -1 -4 -1 -2 0 -1 1 2 4 2 7 7 13 16 20 27 32 23 18 1 -6 -13 -13 -14 -12 -16 -8 -12 -13 -9 -11 -4 -1 1 10 16 17 16 12 5 -15 -17 -23 -22 -22 -23 -22 -22 -22 -23 -11 -11 -11 -7 -1 3 4 8 8 0 -10 -20 -26 -31 -28 -24 -25 -21 -26 -16 -22 -17 -11 -5 -5 4 5 7 5 -6 -19 -29 -26 -26 -23 -19 -21 -19 -22 -19 -14 -11 -12 -6 -5 1 4 -3 -11 -33 -38 -37 -41 -41 -40 -41 -42 -34 -36 -40 -31 -27 -20 -17 -17 -12 -12 -25 -37 -43 -51 -51 -47 -47 -39 -47 -44 -41 -35 -34 -28 -22 -21 -11 -14 -4 7 -3 -12 -26 -28 -34 -25 -25 -29 -22 -24 -20 -21 -17 -11 -7 -4 -1 4 9 21 20 20 17 5 0 -1 2 -1 0 5 9 5 4 14 20 22 26 27 39 42 43 49 51 44 26 25 22 30 24 31 31 33 30 36 39 40 48 48 47 59 60 71 62 62
2026-08-09 07:08:27,70,-87 -67 -84 -76 -73 -66 -62 -67 -51 -48 -36 -49 -29 -42 -31 -63 -52 -64 -45 -29 -42 -22 -31 -48 -12 -17 -21 -14 -22 -35 5 -12 7 19 6 -10 -23 -19 -12 -8 7 6 -10 25 -3 24 20 -17 -10 6 9 1 24 20 27 -13 -2 -10 -27 -12 -16 -9 -1 -6 2 21 12 4 7 -1 -2 6 25 29 16 11 3 -14 2 1 5 28 32 23 18 18 5 21 24 12 31 47 38 37 29 52 24 11 23 10 18 13 24 4 11 7 34 50 21 28 40 39 43 58 62 33 57 32 15 23 10 14 21 21 32 24 43 54 38 41 69 40 36 71 55 62 49 33 32 28 39 35 22 18 25 36 16 27 31 14 46 13 17 28 27 11 6 38 21 17 8 -1 -9 -6 22 17 9 -12 20 15 3 6 1 5 16 32 27 -1 18 33 13 12 -4 -17 7 -26 6 5 -20 -4 -21 -9 -26 -2 -3 5 -8 -13 23 -14 22 29 5 0 -20 -33 -30 -30 -35 -35 -24 -32 -29 -17 -26 -19 -23 -12 -12 -9 -9 -6 1 -11 16 -12 -21 -13 -22 -22 -27 -16 -8 -17 -17 -22 -22 -27 -15 -12 -17 -29 -22 -2 -31 -19 -32 -56 -57 -90 -58 -63 -59 -52 -48 -65
2026-08-09 07:15:58,73,1 3 6 8 7 2 -4 -5 -5 -10 -8 -10 -11 -10 -6 -6 -4 -5 -5 -3 1 3 6 11 11 7 3 -1 -1 -5 -5 -4 -5 -1 -2 0 -1 0 5 4 8 10 15 16 17 16 10 5 1 1 -2 -3 -4 -4 -3 -3 -6 -2 -1 1 3 4 9 10 9 15 14 12 4 1 -1 -4 -4 -5 -5 -4 -3 -5 -5 -4 1 0 2 5 9 10 13 16 18 14 8 2 1 2 0 -1 -4 -1 -4 -1 -2 -2 0 1 2 5 7 8 9 12 13 8 3 0 -1 -6 -7 -6 -7 -8 -6 -5 -3 -3 -3 -1 1 3 5 10 7 8 1 0 -4 -5 -7 -7 -6 -7 -6 -5 -4 -4 -1 1 1 5 5 8 11 6 1 -3 -5 -9 -11 -10 -9 -7 -8 -7 -9 -7 -8 -5 -4 -3 3 3 4 1 -7 -9 -14 -15 -20 -21 -21 -21 -21 -20 -20 -19 -16 -17 -16 -13 -9 -7 -4 -3 -11 -16 -23 -20 -25 -27 -26 -29 -24 -27 -28 -25 -24 -21 -18 -16 -14 -12 -8 -4 -1 -8 -10 -15 -17 -18 -17 -20 -16 -12 -5 3 20 33 47 53 51 29 -11 -40 -47 -43 -27 -4 38 66 61 33 12 7 -3 -7 -23 -34 -32 -12 42 58 57 69 67 56 45 34
2026-08-09 07:28:35,76,-22 -22 -22 -15 -35 -31 -19 -7 -11 -40 -24 -12 0 -4 11 -1 15 -9 -9 -29 -22 -26 -26 -22 -26 -26 -35 -39 -19 -15 -27 5 -4 8 16 4 -24 -25 -33 -41 -33 -53 -33 -22 -42 -34 -34 -34 -14 -35 -43 -11 -23 17 0 -4 -8 -24 -24 -24 -37 -29 -17 -1 -25 -14 -2 -6 -2 6 10 17 21 37 25 13 33 4 -4 -4 -24 -8 16 7 11 -9 3 -1 14 22 22 30 34 26 41 33 37 25 5 8 -16 4 24 0 8 11 11 7 11 19 31 10 30 30 50 30 38 5 5 9 5 9 4 4 0 4 20 24 3 23 31 23 39 35 30 42 26 26 -6 5 41 25 21 37 33 28 12 48 40 52 32 55 47 43 75 71 58 22 18 -6 38 14 33 25 41 33 5 45 8 20 20 48 48 35 43 47 39 11 3 -14 18 10 14 2 22 9 21 17 5 1 28 20 4 32 8 16 -13 11 -21 -45 -13 -5 -30 -18 -18 -34 -34 -23 -35 -31 -31 -19 -11 4 -16 -28 -40 -56 -36 -25 -17 -21 -13 -21 -22 -6 -18 -18 -14 -22 -11 1 9 9 -7 -11 -36 -44 -52 -32 -36 -45 -33 -45 -37 -45 -41 -66 -42 -46 -22 -14 -10 -19 -15 -51
2026-08-09 07:37:12,73,16 18 26 21 7 17 19 43 29 43 45 57 63 77 77 93 67 35 17 1 11 1 19 8 18 18 14 26 14 20 32 40 40 58 52 76 80 80 52 22 6 -4 2 11 11 9 7 15 11 15 25 27 37 39 39 45 57 59 45 25 3 -15 -13 -10 -2 12 4 2 12 0 8 20 26 24 28 42 42 28 20 -2 -26 -34 -38 -41 -29 -29 -31 -37 -35 -31 -21 -15 -17 -9 1 7 9 11 -19 -45 -55 -59 -69 -70 -56 -68 -68 -70 -68 -62 -54 -58 -54 -40 -28 -26 -16 -20 -36 -60 -70 -90 -84 -87 -83 -87 -79 -75 -73 -71 -79 -49 -59 -39 -31 -35 -19 -7 -1 -27 -45 -59 -76 -76 -80 -68 -58 -64 -66 -66 -56 -48 -36 -36 -28 -24 -12 -4 4 4 -18 -44 -52 -51 -59 -41 -49 -43 -43 -43 -41 -33 -29 -19 -7 -13 5 19 21 23 19 -11 -26 -40 -40 -38 -42 -30 -32 -36 -32 -28 -10 -14 -2 6 22 26 26 34 44 46 23 3 -23 -13 -7 -13 -5 -9 -5 -3 -1 3 15 17 23 33 41 49 59 65 68 74 66 44 24 20 18 20 20 36 34 32 30 38 40 46 48 62 68 72 77 87 89 87 55 49 35 45 37 33 45 49 55 39
2026-08-09 07:46:26,73,69 89 88 96 92 68 48 24 28 24 32 37 35 35 33 27 37 39 41 53 53 60 68 72 76 86 60 40 20 12 9 11 1 9 7 1 3 -1 11 10 22 24 30 34 48 48 48 44 4 -1 -27 -25 -31 -23 -21 -39 -33 -33 -26 -28 -12 -20 -6 -2 6 6 12 21 31 15 -19 -35 -41 -61 -39 -49 -41 -46 -36 -44 -36 -34 -24 -26 -16 -4 1 21 25 15 -11 -29 -39 -55 -47 -44 -36 -48 -34 -46 -38 -44 -36 -30 -29 -13 -13 -1 27 15 -3 -35 -47 -51 -50 -48 -44 -46 -48 -42 -46 -34 -36 -23 -17 -5 -9 9 13 29 7 -3 -44 -46 -56 -68 -62 -54 -52 -48 -50 -48 -43 -33 -33 -29 -13 -19 -3 7 9 -14 -38 -48 -66 -56 -58 -62 -48 -60 -51 -49 -47 -43 -37 -31 -11 -9 1 3 6 8 -24 -38 -48 -46 -52 -54 -36 -43 -41 -43 -27 -27 -19 -27 -5 -3 6 18 30 20 0 -22 -26 -30 -26 -26 -21 -25 -9 -13 -17 -7 -9 -5 11 22 40 42 52 44 28 6 4 -22 -5 -15 1 -5 -1 1 1 7 11 17 32 48 48 66 72 74 66 48 32 21 11 17 21 21 29 31 31 31 42 52 46 54 64 80 82 100 112 114 101 81
2026-08-09 07:56:17,70,-12 -17 -21 -2 -14 -10 -7 5 -4 28 31 51 62 74 81 77 68 64 32 15 -17 -30 2 -19 1 4 0 -13 15 14 18 22 49 37 52 80 67 95 66 58 21 9 -24 -12 -12 7 3 14 18 5 5 12 24 39 39 58 54 73 69 93 80 48 3 15 -18 18 25 33 24 32 16 7 31 58 50 61 73 64 60 71 95 70 50 9 -27 -35 -52 -40 -9 -33 -18 -26 -35 -23 -24 0 3 7 23 2 34 45 49 28 -28 -41 -61 -74 -86 -75 -75 -55 -72 -60 -69 -61 -66 -38 -31 -39 -28 -32 -9 3 -9 -22 -82 -107 -107 -108 -80 -89 -81 -82 -78 -83 -71 -68 -60 -28 -37 -25 -26 -26 -7 -11 -36 -80 -93 -93 -106 -98 -98 -99 -91 -84 -76 -81 -93 -78 -66 -31 -31 -28 -28 -12 3 -29 -46 -70 -95 -87 -104 -108 -93 -77 -86 -78 -54 -83 -63 -56 -28 -29 3 -10 10 9 29 16 4 -33 -29 -61 -50 -34 -27 -23 -8 -36 -17 3 2 6 21 17 33 60 48 83 71 74 74 45 -3 -8 4 3 3 23 22 26 25 41 20 40 51 63 46 78 85 77 101 92 64 51 19 14 38 49 29 40 44 51 39 59 58 62 69 65 88 88 95 107 110 102
2026-08-09 08:06:11,68,32 35 49 41 63 72 84 92 76 53 45 39 25 25 32 26 28 32 27 35 33 39 54 62 66 52 72 87 79 57 25 12 4 -6 2 -7 1 -3 7 -1 -2 16 8 14 29 47 47 49 60 64 36 4 -2 -7 -21 -27 -29 -26 -20 -30 -40 -29 -15 -7 1 -9 14 18 26 34 53 31 9 3 -18 -26 -38 -40 -26 -33 -25 -35 -29 -20 -18 -14 -4 3 15 15 25 35 22 -4 -20 -38 -47 -37 -45 -37 -42 -40 -42 -46 -37 -45 -25 -27 -13 -8 4 -2 10 -19 -29 -57 -65 -77 -88 -80 -78 -88 -73 -77 -81 -75 -62 -58 -60 -44 -29 -19 -19 -7 3 -28 -60 -68 -78 -85 -97 -89 -97 -90 -92 -98 -102 -92 -71 -61 -63 -51 -42 -30 -28 -10 -5 -3 -25 -35 -65 -72 -74 -80 -74 -71 -75 -69 -67 -62 -58 -56 -44 -34 -19 -9 1 17 32 44 44 26 9 -15 -13 -23 -17 -12 -12 -18 -14 -13 -1 5 11 20 28 36 34 48 69 61 65 51 36 18 26 24 19 29 17 37 29 44 32 48 42 49 55 79 81 94 88 60 40 26 13 9 21 27 28 16 30 20 25 27 47 47 55 62 64 84 92 97 73 57 35 18 6 2 2 -2 -5 -1 5 5
2026-08-09 08:15:57,68,-54 -60 -61 -42 -53 -47 -38 -29 -14 -12 -3 -4 23 12 4 -27 -36 -43 -39 -62 -53 -54 -57 -63 -62 -55 -46 -40 -33 -32 -23 -7 -10 1 16 27 21 2 -13 -22 -40 -43 -52 -45 -46 -54 -53 -50 -53 -39 -38 -33 -36 -22 -11 -14 9 8 20 35 14 1 -15 -32 -25 -32 -43 -25 -30 -37 -42 -22 -19 -16 -9 -1 6 3 24 29 35 48 51 36 18 3 -6 -1 -12 -12 -1 -10 5 1 4 25 10 21 29 36 45 48 52 75 74 69 43 40 31 20 9 5 16 9 12 14 13 24 23 24 32 37 54 55 71 78 85 92 79 61 46 27 18 16 19 26 21 21 22 29 26 39 35 44 57 58 66 77 90 91 86 66 51 32 23 27 20 37 42 28 37 30 43 50 50 61 74 69 85 92 99 82 55 45 26 23 18 8 17 14 29 15 10 17 28 35 33 44 55 66 72 63 58 33 14 -10 -15 -30 -27 -27 -34 -37 -38 -47 -39 -32 -41 -30 -34 -9 -8 7 11 20 -11 -22 -43 -73 -78 -71 -74 -74 -81 -80 -87 -82 -80 -73 -68 -71 -53 -40 -27 -12 -10 1 -14 -31 -60 -72 -77 -82 -73 -69 -66 -65 -62 -71 -53 -60 -41 -28 -16 -7 -4 13
2026-08-09 08:28:38,67,-11 -3 11 5 14 24 26 26 18 -3 -19 -25 -31 -39 -29 -36 -30 -38 -34 -32 -17 -23 -21 -3 -1 -11 12 16 24 20 30 9 -21 -31 -45 -27 -37 -36 -40 -40 -36 -36 -33 -35 -31 -25 -9 3 10 10 28 20 30 15 5 -17 -35 -27 -31 -38 -28 -34 -26 -32 -29 -23 -13 -19 -9 11 8 10 32 32 46 39 31 15 -3 -13 -3 6 8 6 4 12 17 17 13 11 11 31 32 46 54 52 72 67 49 45 21 15 5 10 2 8 6 6 5 1 5 5 17 15 24 34 36 34 50 45 37 31 13 -7 -19 -18 -28 -20 -24 -12 -23 -13 -17 -11 -21 -7 -2 2 8 8 24 27 31 29 13 -15 -31 -38 -42 -38 -36 -26 -19 -19 -25 -17 -21 -11 -6 -2 8 20 28 35 33 47 41 21 9 -8 -8 -10 -10 4 7 5 5 5 15 11 32 20 34 50 40 59 63 53 35 7 3 0 -14 -14 -2 -8 -3 -11 -1 -7 -3 -3 0 12 24 24 32 31 39 21 -5 -25 -35 -28 -32 -24 -46 -26 -31 -23 -33 -9 -25 -21 -12 0 6 6 12 21 25 7 -3 -23 -41 -40 -42 -38 -30 -42 -39 -35 -33 -33 -23 -23 -26 -10 6 6 -2 13 13 7 -3 -25
2026-08-09 08:38:38,70,48 33 53 32 12 -12 -17 -19 -17 -24 -22 -19 -23 -27 -10 -12 -23 -1 5 -8 0 5 11 21 28 18 -18 -17 -31 -36 -50 -48 -41 -47 -58 -36 -28 -21 -23 -13 -8 -2 1 13 13 24 12 -1 -13 -23 -28 -40 -23 -33 -23 -26 -18 -4 -9 -3 -6 4 24 27 31 36 38 36 27 11 -8 -22 -14 -19 -17 -13 -10 -8 -3 -5 -3 2 -2 25 17 27 26 32 19 27 11 -18 -20 -30 -19 -25 -28 -20 -22 -13 -11 -8 -2 -10 1 -1 17 22 18 15 21 1 -12 -26 -31 -41 -23 -34 -30 -25 -15 -11 -12 -10 -22 -1 3 16 22 34 43 45 36 14 6 -11 -5 0 -4 -10 3 17 15 14 16 29 31 39 54 54 61 59 73 56 50 40 33 27 22 30 32 25 35 36 36 30 35 45 52 56 60 65 59 63 60 32 19 3 -9 -8 -12 -3 -9 -19 -8 -4 -7 7 7 12 14 14 33 33 36 30 38 5 -19 -34 -34 -44 -47 -45 -37 -42 -44 -37 -43 -31 -28 -32 -23 -15 -5 -16 -2 3 9 11 -16 -34 -34 -47 -53 -44 -46 -54 -55 -49 -42 -24 -36 -25 -17 -16 -6 4 15 15 27 36 34 19 -5 -17 -18 -14 -11 -13 -9 -18 -20 -18 -9 -13
2026-08-09 08:48:38,67,15 13 16 14 15 13 14 13 13 18 17 19 20 19 19 17 16 13 8 8 5 5 7 7 5 5 3 4 4 5 7 6 9 8 6 8 8 12 13 12 8 1 0 -3 -3 -1 -4 -4 -4 -5 -4 -3 -5 -6 -5 -1 -2 0 0 2 2 4 6 6 1 2 -4 -7 -5 -8 -6 -4 -6 -7 -3 -3 -5 -4 -3 0 1 3 3 5 4 7 6 7 3 0 -3 -2 -4 -4 -4 0 -1 -2 1 -1 -1 -1 1 1 3 4 5 6 7 4 -2 -4 -7 -10 -7 -8 -11 -7 -10 -8 -9 -10 -11 -8 -8 -7 -6 -6 -6 -3 -4 -4 -9 -12 -17 -14 -19 -22 -19 -19 -16 -17 -19 -19 -17 -17 -15 -14 -14 -14 -11 -9 -10 -8 -11 -17 -20 -18 -22 -20 -22 -18 -20 -19 -18 -19 -16 -15 -14 -13 -12 -8 -10 -6 -4 -6 -4 -6 -11 -10 -12 -16 -12 -10 -11 -11 -11 -11 -10 -7 -10 -10 -6 -5 -5 -4 -2 -5 -4 -10 -10 -15 -17 -13 -16 -18 -15 -17 -15 -17 -16 -12 -13 -13 -11 -9 -8 -7 -8 -6 -7 -9 -14 -17 -18 -18 -20 -17 -12 -6 0 8 1 2 8 23 19 33 39 41 40 41 36 34 27 26 36 42 43 48 55 63 64 75 86 8
2026-08-09 08:56:55,71,77 77 89 93 86 74 42 42 34 30 66 34 38 46 38 55 31 71 47 67 71 79 79 71 79 67 64 32 12 28 32 12 24 36 44 44 24 40 45 49 61 57 61 81 73 45 29 21 -23 -15 -10 -6 2 -14 6 2 -2 -10 14 14 30 31 27 35 15 3 -9 -33 -65 -53 -57 -53 -64 -48 -76 -40 -56 -64 -36 -44 -32 -32 -28 -16 5 -15 -19 -47 -83 -71 -95 -103 -79 -91 -95 -78 -90 -62 -54 -74 -62 -54 -50 -34 -42 -34 -10 -25 -41 -69 -89 -65 -81 -69 -73 -73 -77 -49 -60 -68 -72 -64 -52 -28 -24 -20 -20 0 -4 -28 -43 -63 -43 -63 -59 -39 -39 -43 -35 -43 -51 -19 -6 -6 -6 14 14 26 18 6 -34 -38 -42 -37 -21 -25 -29 -25 -25 -57 -41 -25 -21 -9 -17 8 0 12 16 12 4 -12 -36 -24 -52 -56 -39 -55 -27 -39 -39 -15 -27 -23 -23 -23 9 25 14 50 38 38 14 2 -30 -30 -34 -22 -26 -17 -21 -17 -5 -13 -13 7 31 11 27 19 55 44 40 68 64 32 20 8 0 8 28 16 29 5 13 21 29 25 25 33 41 69 73 65 70 46 50 18 2 10 18 30 42 54 42 38 39 35 47 55 75 71 67 99 91 75
2026-08-09 09:05:56,66,57 49 55 57 65 75 63 75 75 79 59 25 19 19 15 15 13 11 15 3 -3 7 15 23 21 23 33 35 37 51 63 49 51 13 11 7 17 15 19 27 25 23 17 25 19 31 32 42 50 44 48 58 66 64 60 36 12 -4 8 -2 -8 -2 4 -2 -8 -8 2 2 6 6 6 16 18 16 20 28 28 16 -8 -20 -34 -36 -26 -32 -22 -28 -24 -38 -28 -36 -28 -30 -22 -16 -18 -16 -10 2 -6 -26 -54 -70 -80 -86 -76 -72 -86 -80 -82 -84 -94 -84 -66 -60 -52 -52 -42 -44 -32 -38 -36 -52 -74 -84 -92 -88 -80 -72 -72 -78 -68 -68 -66 -52 -52 -42 -44 -32 -26 -26 -8 -10 0 -8 -38 -56 -64 -64 -70 -60 -49 -50 -59 -47 -57 -49 -39 -45 -27 -25 -17 -5 -5 -7 19 15 9 -19 -21 -37 -35 -31 -31 -21 -25 -29 -19 -29 -25 -21 -5 9 -5 3 11 13 19 19 41 35 29 7 -17 -21 -7 -19 -19 -13 -19 -17 -7 -17 3 1 1 25 29 21 27 33 55 61 61 41 31 19 13 11 15 11 21 21 15 13 23 31 37 33 43 51 43 57 55 53 69 71 77 59 33 17 27 23 31 33 29 33 27 25 31 33 45 57 57 57 59 69
2026-08-09 09:16:27,72,44 58 65 71 71 87 77 69 39 13 21 10 16 16 14 26 18 20 22 23 25 27 31 31 43 43 41 61 50 62 44 32 12 -6 -10 -8 -6 -7 -13 -17 -19 -17 -15 -21 -1 -2 0 2 12 14 24 34 14 -8 -21 -23 -31 -29 -21 -5 -11 -9 -11 -12 -2 -2 0 6 12 18 22 29 17 13 -7 -27 -25 -31 -35 -19 -24 -24 -20 -22 -14 -20 4 -8 -6 9 13 19 31 31 33 13 -1 -34 -28 -36 -40 -24 -26 -22 -32 -26 -25 -19 -13 -19 -15 -1 5 3 21 22 24 -4 -22 -44 -52 -50 -42 -45 -39 -47 -51 -43 -53 -41 -43 -39 -32 -36 -34 -26 -16 -24 -44 -64 -58 -69 -65 -59 -49 -45 -57 -53 -55 -45 -34 -32 -20 -30 -32 -20 -16 -28 -39 -63 -63 -73 -57 -61 -45 -51 -39 -48 -34 -42 -28 -22 -18 2 4 5 17 19 1 -21 -31 -27 -33 -25 -30 -18 -22 -20 -16 -16 -8 -2 0 9 13 9 25 35 39 29 11 -3 -6 -6 2 -2 8 10 8 4 17 11 27 27 39 49 49 51 59 72 60 40 22 16 10 18 4 14 19 15 13 23 19 17 35 31 38 38 48 52 52 68 52 28 20 17 19 31 29 25 31 29 31 41 46 44
2026-08-09 09:26:00,74,25 49 38 62 39 59 91 64 44 -3 29 -3 2 2 6 27 35 20 32 20 33 37 58 58 62 83 75 63 64 52 37 29 9 34 10 55 47 35 36 36 36 41 57 58 66 82 79 99 87 72 12 13 -3 5 26 14 19 3 7 4 52 32 41 29 26 34 54 43 63 48 16 -52 -31 -31 -27 -26 -50 -37 -57 -41 -32 -48 -43 -47 -15 -18 -2 -14 7 -1 -32 -44 -64 -83 -83 -78 -66 -86 -77 -73 -81 -84 -68 -63 -67 -39 -38 -46 -9 -17 -29 -56 -68 -48 -79 -71 -74 -82 -70 -53 -73 -76 -68 -60 -67 -55 -47 -34 -38 -29 -13 -45 -48 -88 -96 -95 -99 -94 -90 -70 -85 -97 -88 -64 -84 -43 -59 -43 -26 -14 -13 -17 -37 -68 -68 -83 -79 -83 -66 -50 -58 -65 -53 -44 -44 -44 1 1 -10 18 18 23 11 -13 -24 -32 -39 -27 -27 -22 10 -13 -25 -21 -16 0 4 21 17 34 50 46 39 15 0 -8 12 5 9 13 2 -2 35 27 39 60 52 61 61 69 70 58 46 23 15 20 -8 28 29 25 26 38 30 39 43 67 48 80 97 77 85 82 62 39 19 11 12 0 4 17 21 14 18 6 43 35 36 44 44 69 69 85 58 34 23 11
2026-08-09 09:35:55,74,63 55 39 15 7 -5 15 31 -1 27 27 19 20 32 20 20 32 32 56 56 60 68 60 20 20 0 4 1 5 29 29 21 9 9 17 13 17 21 17 29 33 49 54 42 22 10 -6 -10 -14 2 6 14 10 -2 10 14 15 15 15 11 47 23 11 -1 -33 -41 -25 -33 -25 -41 -21 -48 -16 -24 -36 -32 -12 -28 4 -8 -8 4 -4 -20 -44 -60 -55 -47 -27 -47 -39 -15 -35 -27 -39 -27 -7 -11 -7 -15 2 2 18 18 -10 -22 -62 -46 -46 -42 -46 -22 -34 -42 -50 -41 -5 -13 -5 7 -9 -5 -5 3 -5 -25 -49 -37 -53 -37 -28 -12 -24 -20 -28 -32 -24 0 -16 4 -4 16 28 20 16 -27 -31 -51 -43 -35 -27 -23 -35 -27 -31 -43 -31 -35 -23 -14 -2 6 2 -6 -10 -42 -66 -50 -58 -30 -50 -46 -22 -54 -49 -37 -9 -25 -17 11 27 11 27 19 23 15 -37 -33 -25 -36 -24 -28 -36 0 -16 0 -12 -12 8 24 12 24 44 37 37 57 65 29 1 -19 -7 17 9 29 17 29 41 -3 26 34 38 42 42 34 42 46 70 50 74 46 14 26 -2 15 19 11 19 19 19 -5 7 15 35 51 27 47 43 47 36 16 0 -8 -24 -20 -16 0
2026-08-09 09:46:07,68,-4 -1 22 26 21 53 36 31 31 6 14 -3 -32 -32 -25 -9 -10 -11 -3 20 4 11 10 22 9 37 52 27 47 46 58 41 36 48 23 3 10 1 25 28 4 7 10 18 29 17 40 36 39 38 38 53 61 48 11 19 2 10 1 -4 20 -17 19 -6 1 5 16 16 15 38 14 25 37 48 47 -1 -2 -14 -19 -8 -20 7 -21 -26 -7 1 -16 -8 11 -6 6 5 21 20 3 -17 -18 -42 -47 -48 -32 -25 -37 -22 -39 -23 -40 -32 -13 -13 2 5 -3 -4 11 -1 2 -30 -63 -67 -40 -69 -65 -50 -62 -35 -48 -60 -49 -37 -42 -27 -19 -12 -28 -29 -26 -10 -19 -59 -64 -61 -65 -66 -54 -51 -76 -56 -57 -53 -46 -47 -39 -40 -32 -53 -2 -18 13 9 -16 -37 -29 -46 -46 -55 -44 -48 -45 -49 -50 -35 -15 -20 -36 7 -10 2 -19 1 28 8 19 14 6 1 -15 -32 -17 -13 -26 -14 -7 -24 -8 3 -1 2 13 21 32 16 35 34 38 37 5 -8 -1 -1 -2 -2 1 -20 -12 -29 11 -6 17 29 36 40 51 50 50 65 61 48 47 43 2 6 1 8 -12 31 7 42 30 5 4 24 19 31 22 33 49 56 64 59 70 54 53 41 4 35
2026-08-09 09:58:39,85,46 9 -11 4 16 21 24 19 15 17 23 25 24 16 12 12 14 14 12 19 18 17 15 16 22 25 35 43 42 48 50 53 51 49 44 36 33 33 28 29 25 21 19 14 17 20 19 20 18 14 12 8 9 6 8 8 4 6 4 6 7 7 6 6 6 3 3 -3 -4 -2 -3 -1 1 -2 -2 -3 -6 -4 -3 -2 -4 -4 -9 -10 -11 -13 -15 -14 -15 -17 -15 -16 -14 -15 -13 -12 -11 -12 -15 -19 -21 -24 -24 -22 -23 -24 -25 -20 -22 -24 -21 -23 -22 -21 -22 -21 -21 -26 -26 -29 -30 -27 -29 -27 -30 -28 -29 -27 -28 -27 -24 -28 -26 -26 -28 -32 -31 -32 -36 -35 -32 -32 -32 -34 -32 -33 -32 -33 -32 -31 -29 -30 -29 -30 -36 -35 -34 -37 -36 -34 -33 -32 -33 -35 -34 -31 -31 -29 -28 -28 -29 -28 -32 -34 -34 -31 -32 -28 -28 -25 -26 -23 -26 -21 -23 -17 -16 -19 -14 -18 -19 -18 -19 -19 -19 -17 -16 -16 -12 -13 -12 -7 -7 -4 -4 -1 2 3 7 5 5 1 1 2 1 5 8 7 10 13 13 15 15 18 21 25 25 27 29 34 34 35 37 40 40 39 40 33 38 38 41 44 44 47 47 49 53 53 58 58 62 65 66 69 71 72
2026-08-09 10:06:08,88,-102 -116 -122 -127 -125 -101 -81 -52 -28 -16 3 29 43 54 60 46 38 31 35 35 36 50 44 49 41 61 63 68 76 66 89 79 63 43 36 28 36 35 45 29 36 42 46 50 51 61 63 76 80 66 57 25 17 17 4 18 22 13 21 17 23 16 36 38 33 53 55 36 16 14 2 1 3 1 8 0 6 5 17 17 23 34 50 36 17 -1 -21 -22 -20 -36 -24 -23 -17 -17 -18 0 6 4 9 25 39 12 -8 -22 -33 -43 -37 -29 -32 -24 -26 -19 -15 -15 6 2 12 12 3 -11 -35 -40 -48 -50 -45 -43 -37 -35 -40 -44 -34 -29 -23 -13 -9 -26 -26 -52 -69 -71 -67 -68 -64 -52 -60 -49 -55 -53 -46 -44 -30 -37 -53 -69 -75 -82 -92 -96 -91 -103 -87 -80 -86 -80 -74 -53 -47 -47 -48 -64 -62 -76 -93 -79 -77 -68 -68 -60 -49 -51 -49 -23 -36 -12 -20 -39 -41 -47 -44 -36 -34 -16 -13 -1 -3 0 12 2 20 21 33 41 32 22 6 -1 1 3 11 -4 16 18 27 35 37 52 62 62 62 57 41 41 18 14 8 23 35 31 31 34 42 56 67 59 75 79 72 42 26 21 27 25 22 34 30 46 45 49 49 48 58 70 79 77 65 47
2026-08-09 10:26:03,86,-16 -8 -18 -8 -22 -8 -27 -19 -19 -23 -25 -19 -17 -21 -18 -18 -6 -12 -4 0 6 14 13 23 23 29 31 39 51 49 60 52 54 48 56 46 34 38 29 19 27 29 13 13 23 21 14 10 16 16 14 20 18 16 13 1 5 1 3 7 7 -7 -2 -6 2 4 12 8 -2 8 13 1 -7 -9 -11 -7 -15 -13 -14 -6 -2 -14 -4 2 4 -4 -1 -7 -9 -13 -5 -11 -7 -1 6 -8 8 16 2 10 10 14 11 13 17 19 13 9 13 3 0 -4 8 0 0 -6 -14 2 1 3 3 9 5 -13 -25 -21 -18 -18 -26 -20 -26 -42 -36 -26 -35 -19 -15 -17 -17 -15 -21 -41 -38 -36 -28 -34 -36 -28 -38 -36 -33 -25 -31 -21 -21 -21 -19 -31 -28 -30 -30 -26 -28 -32 -32 -20 -15 -27 -19 -21 -15 -7 -15 -11 -10 -20 -16 -22 -24 -22 -16 -28 -19 -19 -27 -21 -21 -15 -5 -5 -2 -20 -26 -22 -18 -20 -26 -22 -13 -7 -7 -15 -7 -9 -7 -3 -2 10 2 12 8 0 -6 0 -5 3 9 1 1 7 5 19 8 10 14 6 8 14 8 -4 -3 -1 -1 -11 -1 1 5 11 12 20 30 36 30 44 38 38 39 51 43 49 57 57 57 71 70 70
2026-08-09 10:38:36,78,-35 -36 -36 -34 -36 -34 -33 -26 -25 -26 -24 -29 -31 -31 -33 -36 -40 -45 -39 -38 -36 -39 -29 -24 -21 -19 -13 -10 0 0 5 9 -1 2 -1 1 0 -1 2 0 7 13 15 24 32 41 55 61 66 64 60 59 55 52 50 51 50 48 45 42 39 37 38 37 38 31 32 30 30 25 21 15 15 8 10 6 16 6 6 5 9 11 14 12 14 14 13 17 11 7 2 -2 -6 -6 -7 -10 -15 -13 -12 -10 -7 -10 -13 -1 -2 1 -1 4 -1 -4 -10 -9 -16 -13 -16 -10 -9 -8 -12 -9 -1 -2 -4 0 6 8 4 3 -6 -10 -4 -8 -7 -9 -6 -10 -8 -8 -7 0 -2 1 1 1 4 2 4 -2 -6 -14 -10 -10 -8 -13 -11 -14 -16 -15 -18 -20 -20 -21 -21 -19 -20 -18 -21 -21 -21 -24 -15 -13 -14 -11 -9 -12 -14 -14 -19 -15 -14 -10 -7 -6 -7 -5 -3 -6 -11 -17 -14 -8 -12 -10 -9 -7 -8 -7 -9 -4 -2 -1 3 11 -3 1 -6 -4 -6 -7 -6 -4 -4 -5 3 -3 -4 2 3 3 3 7 2 -2 -1 -1 -6 -7 -5 -12 -5 -15 -2 -12 -3 -5 1 1 5 8 14 12 12 17 18 20 16 18 19 20 21 16 23 24 25 19
2026-08-09 10:46:05,72,41 39 42 38 37 37 35 35 34 32 34 32 32 31 31 31 32 34 34 35 34 32 31 29 27 24 24 23 22 21 21 19 21 19 21 20 22 21 24 26 25 28 25 25 19 17 17 15 13 16 13 13 12 13 13 14 13 14 16 18 18 18 20 19 20 15 14 10 9 3 -2 -4 -11 -9 -6 -7 -4 -1 1 0 0 4 2 3 1 -4 -7 -9 -8 -10 -13 -15 -16 -16 -18 -20 -18 -19 -15 -21 -18 -21 -24 -17 -25 -26 -28 -30 -33 -35 -39 -39 -42 -40 -41 -44 -42 -44 -44 -45 -43 -46 -42 -42 -43 -45 -47 -47 -50 -55 -57 -62 -66 -65 -67 -68 -64 -64 -60 -59 -53 -53 -51 -47 -44 -45 -41 -42 -43 -46 -44 -46 -45 -49 -47 -49 -48 -46 -45 -46 -45 -46 -47 -48 -43 -45 -43 -42 -46 -43 -45 -43 -45 -43 -40 -37 -34 -31 -25 -24 -19 -14 -7 -8 -6 -2 2 4 6 8 7 6 4 6 7 7 7 9 9 12 11 15 17 17 21 21 23 27 27 29 29 28 27 26 28 29 28 30 31 30 29 34 33 31 35 36 39 41 43 43 44 41 40 41 38 38 38 39 38 39 40 40 40 44 45 44 44 44 47 47 43 41 40 40 40 36
2026-08-09 11:07:17,34,14 16 11 13 16 13 11 12 15 10 12 12 9 3 7 10 10 11 7 3 8 8 5 10 3 3 2 7 0 0 2 -3 -4 0 -2 -4 -2 -3 8 10 16 13 12 8 13 13 10 10 12 5 3 -7 -9 -5 1 2 4 8 5 6 6 2 -8 -10 -6 -8 -1 11 10 5 4 3 7 2 8 6 6 5 5 -2 -10 -20 -26 -31 -21 -28 -22 -18 -20 -11 -14 -10 -4 -10 -6 -8 -6 -7 -11 -6 -8 -7 -9 2 -5 -6 -7 -12 3 13 17 17 15 13 22 19 18 22 24 16 18 17 19 18 20 20 15 19 11 8 10 5 0 -3 -8 -20 -21 -16 -18 -18 -25 -28 -19 -13 -6 -4 2 14 2 -3 2 0 -4 -3 -3 -2 1 -5 -4 -3 -8 -9 -9 -13 -17 -20 -31 -31 -39 -36 -46 -42 -30 -42 -28 -56 -92 -117 -92 -124 -109 -96 -104 -104 -91 -65 -31 -31 -4 12 14 17 16 10 14 21 22 27 25 21 32 28 29 25 33 37 36 40 39 38 44 37 33 33 37 29 36 33 30 12 -25 -67 -88 -88 -82 -64 -72 -79 -66 -21 3 10 24 19 28 31 28 28 30 40 36 46 55 47 36 51 57 59 56 43 32 18 20 30 42 51
2026-08-09 11:15:56,56,-88 -88 -91 -88 -65 -39 -15 0 9 8 19 16 17 20 15 19 13 9 12 1 3 0 -1 -8 -5 -10 -13 -12 -22 -25 -29 -24 -22 -23 -19 -18 -21 -20 -21 -10 -3 2 14 17 31 29 19 8 15 11 19 18 20 22 14 0 -36 -61 -58 -27 -15 -25 -21 -17 -28 -29 -54 -57 -3 17 29 46 38 51 37 35 33 33 33 41 51 42 38 38 37 30 19 17 14 23 26 30 29 32 33 32 29 33 28 28 31 34 31 28 32 30 27 23 17 18 19 18 13 13 9 14 11 12 12 11 7 3 11 3 2 -1 1 -3 1 1 -4 -5 -2 -2 -10 -7 -12 -9 -7 -9 -9 -9 -11 -8 -10 -7 -10 -3 -11 -15 -13 -14 -8 -14 -16 -14 -13 -8 -8 -7 -5 -13 -12 -18 -20 -16 -15 -23 -18 -19 -15 -12 -8 -12 -10 -4 -7 -16 -15 -15 -16 -12 -16 -12 -9 -6 -8 -4 -12 -9 -4 -13 -8 -9 -8 -3 -3 -11 -8 -3 0 -6 -8 -6 -1 0 -7 -8 -9 -4 -6 -4 -7 -2 -1 -2 -7 -2 -3 1 -2 0 -2 -2 -5 -1 0 0 3 4 1 -1 3 5 6 2 2 2 3 2 -3 1 5 3 2 2 -1 5 8 1 9 0 -1 6 1 0
2026-08-09 11:25:55,34,9 11 11 10 10 11 9 9 7 6 5 5 3 -2 -4 -2 -4 -9 -9 -9 -6 -2 1 3 2 0 2 4 0 0 2 -4 -2 4 8 9 10 10 9 10 10 8 9 9 9 8 7 5 5 5 4 3 4 4 4 3 3 4 4 3 3 2 3 3 4 3 2 2 3 3 0 -2 1 0 0 0 -3 -2 1 -1 -2 -4 -2 -2 -5 -8 -7 -5 -4 -4 -4 -3 -3 -3 -4 -6 -6 -3 -4 -7 -8 -4 -5 -6 -7 -6 -3 -4 -6 -9 -8 -7 -6 -9 -8 -6 -5 -5 -6 -8 -6 -6 -11 -20 -18 -22 -31 -80 -106 -84 -44 -37 -31 -18 0 5 -4 -6 3 9 5 4 5 6 11 11 9 9 10 12 9 10 8 13 15 16 17 16 17 16 10 5 6 9 8 6 2 4 3 0 -13 -41 -68 -59 -26 -16 -9 2 9 13 13 12 12 8 7 8 8 7 7 9 12 14 17 11 13 14 15 16 15 13 12 11 9 7 5 4 2 2 5 2 -5 -13 -45 -77 -71 -25 -18 -10 5 11 17 19 22 24 24 21 18 11 8 9 3 0 4 7 0 4 7 2 2 6 3 0 4 0 -3 2 2 2 2 3 1 4 3 2 -1 -1
2026-08-09 11:36:25,44,16 17 15 14 14 14 16 12 10 11 14 14 11 11 12 14 11 6 13 13 11 9 11 8 12 10 7 7 11 11 9 4 8 11 10 6 6 7 9 4 3 6 9 7 3 1 2 7 7 2 0 7 7 4 -1 0 3 4 1 -2 0 1 4 -1 2 1 1 0 -2 -1 -1 0 -3 -5 -5 -1 -5 -8 -7 -3 -3 -5 -7 -6 -3 -5 -9 -9 -6 -4 -5 -8 -10 -7 -9 -9 -10 -10 -4 -5 -11 -9 -7 -7 -8 -12 -9 -6 -6 -9 -10 -8 -9 -7 -10 -11 -7 -6 -7 -11 -12 -9 -9 -11 -12 -11 -7 -10 -12 -16 -13 -12 -13 -15 -15 -10 -12 -11 -15 -15 -12 -12 -12 -16 -16 -10 -12 -15 -17 -15 -10 -10 -14 -15 -12 -12 -11 -19 -17 -13 -12 -11 -16 -15 -11 -13 -14 -20 -18 -11 -12 -14 -18 -15 -13 -8 -6 -6 -5 -5 2 3 2 0 1 -2 -2 -3 -5 -3 -1 -4 -3 -3 -4 -5 -4 -6 -8 -7 -7 -7 -7 -5 -6 -1 -2 1 2 3 6 12 9 12 13 15 18 16 14 12 12 7 2 9 12 29 29 20 4 -29 -69 -61 -48 -31 -26 -28 -30 -27 -25 -20 -12 -4 6 26 54 54 54 45 30 51 58 52 69 70 69 68
